Index,II
0,1.5074969474969475
1,1.5074969474969475
2,1.5097435897435898
3,1.5232234432234433
4,1.5277167277167276
5,1.5232234432234433
6,1.5187301587301587
7,1.5232234432234433
8,1.5434432234432234
9,1.547936507936508
10,1.5602930402930404
11,1.567032967032967
12,1.5647863247863247
13,1.573772893772894
14,1.586129426129426
15,1.5973626373626373
16,1.5917460317460317
17,1.5894993894993894
18,1.5872527472527471
19,1.5894993894993894
20,1.604102564102564
21,1.6142124542124543
22,1.6355555555555557
23,1.632185592185592
24,1.6220757020757022
25,1.6355555555555557
26,1.6602686202686203
27,1.678241758241758
28,1.705201465201465
29,1.731037851037851
30,1.7624908424908423
31,1.775970695970696
32,1.768107448107448
33,1.7557509157509157
34,1.7456410256410255
35,1.7411477411477412
36,1.7186813186813186
37,1.6962148962148962
38,1.6973382173382174
39,1.693968253968254
40,1.6973382173382174
41,1.678241758241758
42,1.678241758241758
43,1.6715018315018315
44,1.6636385836385836
45,1.678241758241758
46,1.6715018315018315
47,1.6737484737484738
48,1.6681318681318682
49,1.6804884004884004
50,1.6984615384615385
51,1.6962148962148962
52,1.6872283272283273
53,1.6950915750915752
54,1.704078144078144
55,1.686105006105006
56,1.6793650793650794
57,1.6950915750915752
58,1.6917216117216116
59,1.6984615384615385
60,1.7153113553113553
61,1.72991452991453
62,1.7287912087912087
63,1.7355311355311356
64,1.7265445665445665
65,1.7231746031746031
66,1.722051282051282
67,1.713064713064713
68,1.7198046398046398
69,1.7265445665445665
70,1.722051282051282
71,1.7164346764346765
72,1.710818070818071
73,1.7276678876678877
74,1.7242979242979244
75,1.7287912087912087
76,1.7355311355311356
77,1.722051282051282
78,1.713064713064713
79,1.7164346764346765
80,1.7321611721611725
81,1.7366544566544566
82,1.7445177045177045
83,1.7265445665445665
84,1.7175579975579975
85,1.7254212454212454
86,1.737777777777778
87,1.7287912087912087
88,1.7355311355311356
89,1.7265445665445665
90,1.7175579975579975
91,1.72991452991453
92,1.7254212454212454
93,1.713064713064713
94,1.7096947496947497
95,1.711941391941392
96,1.704078144078144
97,1.7141880341880342
98,1.713064713064713
99,1.7141880341880342
100,1.713064713064713
101,1.722051282051282
102,1.731037851037851
103,1.7276678876678877
104,1.7231746031746031
105,1.72991452991453
106,1.722051282051282
107,1.7141880341880342
108,1.705201465201465
109,1.7063247863247863
110,1.7186813186813186
111,1.7332844932844933
112,1.7242979242979244
113,1.7287912087912087
114,1.7321611721611725
115,1.72991452991453
116,1.7287912087912087
117,1.731037851037851
118,1.7344078144078143
119,1.7332844932844933
120,1.7366544566544566
121,1.722051282051282
122,1.731037851037851
123,1.7141880341880342
124,1.7096947496947497
125,1.7254212454212454
126,1.7332844932844933
127,1.738901098901099
128,1.7523809523809524
129,1.8175335775335772
130,1.8444932844932844
131,1.8714529914529916
132,1.869206349206349
133,1.8613431013431012
134,1.8355067155067155
135,1.822026862026862
136,1.8063003663003665
137,1.7916971916971918
138,1.749010989010989
139,1.75013431013431
140,1.72991452991453
141,1.7265445665445665
142,1.731037851037851
143,1.7332844932844933
144,1.7141880341880342
145,1.7355311355311356
146,1.704078144078144
147,1.6905982905982906
148,1.749010989010989
149,2.0545543345543344
150,2.6656410256410257
151,3.3272771672771677
152,3.495775335775336
153,3.409279609279609
154,2.8914285714285715
155,2.2814652014652013
156,1.8804395604395605
157,1.7007081807081808
158,1.6052258852258852
159,1.5805128205128205
160,1.5423199023199023
161,1.5187301587301587
162,1.503003663003663
163,1.4906471306471307
164,1.495140415140415
165,1.4805372405372406
166,1.4794139194139193
167,1.4861538461538462
168,1.4827838827838828
169,1.4884004884004884
170,1.511990231990232
171,1.514236874236874
172,1.4962637362637363
173,1.511990231990232
174,1.5265934065934066
175,1.520976800976801
176,1.5322100122100122
177,1.52996336996337
178,1.5367032967032968
179,1.538949938949939
180,1.5423199023199023
181,1.5434432234432234
182,1.546813186813187
183,1.5726495726495726
184,1.5715262515262516
185,1.593992673992674
186,1.5838827838827838
187,1.5962393162393165
188,1.6074725274725274
189,1.6097191697191695
190,1.6108424908424908
191,1.611965811965812
192,1.6108424908424908
193,1.5996092796092796
194,1.6265689865689863
195,1.6434188034188033
196,1.6692551892551892
197,1.6928449328449329
198,1.6995848595848595
199,1.705201465201465
200,1.7265445665445665
201,1.7433943833943837
202,1.7557509157509157
203,1.7636141636141636
204,1.7737240537240535
205,1.7602442002442005
206,1.7478876678876678
207,1.7344078144078143
208,1.7355311355311356
209,1.749010989010989
210,1.7647374847374848
211,1.7445177045177045
212,1.7591208791208792
213,1.7523809523809524
214,1.775970695970696
215,1.777094017094017
216,1.7714774114774114
217,1.72991452991453
218,1.677118437118437
219,1.6411721611721612
220,1.6501587301587302
221,1.6984615384615385
222,1.731037851037851
223,1.74002442002442
224,1.7445177045177045
225,1.72991452991453
226,1.74002442002442
227,1.7467643467643468
228,1.7332844932844933
229,1.713064713064713
230,1.7085714285714286
231,1.7287912087912087
232,1.7287912087912087
233,1.7591208791208792
234,1.8984126984126983
235,2.2208058608058607
236,2.842002442002442
237,3.411526251526252
238,3.4025396825396825
239,2.8127960927960927
240,2.247765567765568
241,1.922002442002442
242,1.7860805860805862
243,1.702954822954823
244,1.6827350427350427
245,1.6692551892551892
246,1.6602686202686203
247,1.6490354090354091
248,1.6434188034188033
249,1.6299389499389498
250,1.6344322344322344
251,1.6378021978021975
252,1.6288156288156288
253,1.6254456654456657
254,1.636678876678877
255,1.632185592185592
256,1.6434188034188033
257,1.6501587301587302
258,1.6467887667887668
259,1.658021978021978
260,1.6692551892551892
261,1.6535286935286937
262,1.6636385836385836
263,1.6715018315018315
264,1.6883516483516483
265,1.6995848595848595
266,1.6917216117216116
267,1.704078144078144
268,1.7231746031746031
269,1.737777777777778
270,1.768107448107448
271,1.779340659340659
272,1.7804639804639804
273,1.796190476190476
274,1.8018070818070815
275,1.8164102564102564
276,1.823150183150183
277,1.831013431013431
278,1.8343833943833945
279,1.8253968253968251
280,1.8152869352869352
281,1.8107936507936508
282,1.7984371184371184
283,1.7512576312576311
284,1.737777777777778
285,1.7231746031746031
286,1.6984615384615385
287,1.6726251526251523
288,1.6557753357753358
289,1.6467887667887668
290,1.6467887667887668
291,1.6501587301587302
292,1.6445421245421246
293,1.6422954822954825
294,1.647912087912088
295,1.6411721611721612
296,1.6467887667887668
297,1.6625152625152626
298,1.6512820512820512
299,1.6501587301587302
300,1.6602686202686203
301,1.6625152625152626
302,1.6726251526251523
303,1.6737484737484738
304,1.6726251526251523
305,1.6950915750915752
306,1.6827350427350427
307,1.6928449328449329
308,1.6793650793650794
309,1.6827350427350427
310,1.6883516483516483
311,1.6950915750915752
312,1.6917216117216116
313,1.6984615384615385
314,1.6995848595848595
315,1.7018315018315018
316,1.7186813186813186
317,1.7175579975579975
318,1.711941391941392
319,1.7074481074481074
320,1.6973382173382174
321,1.710818070818071
322,1.7321611721611725
323,1.737777777777778
324,1.7355311355311356
325,1.7445177045177045
326,1.7422710622710622
327,1.7456410256410255
328,1.7411477411477412
329,1.731037851037851
330,1.738901098901099
331,1.731037851037851
332,1.7265445665445665
333,1.7321611721611725
334,1.74002442002442
335,1.7467643467643468
336,1.737777777777778
337,1.731037851037851
338,1.74002442002442
339,1.7445177045177045
340,1.7433943833943837
341,1.738901098901099
342,1.7344078144078143
343,1.7254212454212454
344,1.7321611721611725
345,1.7478876678876678
346,1.7445177045177045
347,1.7265445665445665
348,1.7332844932844933
349,1.737777777777778
350,1.7478876678876678
351,1.7445177045177045
352,1.749010989010989
353,1.738901098901099
354,1.7344078144078143
355,1.7332844932844933
356,1.7321611721611725
357,1.7332844932844933
358,1.749010989010989
359,1.7445177045177045
360,1.7602442002442005
361,1.7546275946275949
362,1.7636141636141636
363,1.7467643467643468
364,1.7557509157509157
365,1.738901098901099
366,1.7467643467643468
367,1.7445177045177045
368,1.7535042735042734
369,1.7456410256410255
370,1.75013431013431
371,1.7433943833943837
372,1.7445177045177045
373,1.7546275946275949
374,1.756874236874237
375,1.756874236874237
376,1.7557509157509157
377,1.7456410256410255
378,1.74002442002442
379,1.7332844932844933
380,1.7276678876678877
381,1.749010989010989
382,1.7478876678876678
383,1.749010989010989
384,1.7984371184371184
385,1.8467399267399267
386,1.881562881562881
387,1.893919413919414
388,1.8871794871794871
389,1.8635897435897435
390,1.8534798534798536
391,1.8568498168498169
392,1.8444932844932844
393,1.8051770451770448
394,1.7737240537240535
395,1.7512576312576311
396,1.7546275946275949
397,1.7658608058608058
398,1.7636141636141636
399,1.7557509157509157
400,1.7512576312576311
401,1.7602442002442005
402,1.7355311355311356
403,1.7242979242979244
404,1.832136752136752
405,2.2106959706959706
406,2.835262515262515
407,3.4205128205128204
408,3.495775335775336
409,3.3362637362637364
410,2.783589743589744
411,2.2005860805860804
412,1.8647130647130647
413,1.6962148962148962
414,1.61982905982906
415,1.5951159951159952
416,1.5715262515262516
417,1.5423199023199023
418,1.5176068376068377
419,1.5187301587301587
420,1.5131135531135531
421,1.514236874236874
422,1.501880341880342
423,1.5097435897435898
424,1.5086202686202683
425,1.4973870573870574
426,1.4985103785103786
427,1.4962637362637363
428,1.5063736263736265
429,1.5131135531135531
430,1.5265934065934066
431,1.5187301587301587
432,1.5344566544566545
433,1.5602930402930404
434,1.565909645909646
435,1.5636630036630037
436,1.5591697191697191
437,1.5625396825396825
438,1.5614163614163614
439,1.5692796092796093
440,1.5636630036630037
441,1.568156288156288
442,1.5816361416361415
443,1.5894993894993894
444,1.592869352869353
445,1.6007326007326008
446,1.6074725274725274
447,1.6254456654456657
448,1.6378021978021975
449,1.6703785103785105
450,1.6636385836385836
451,1.684981684981685
452,1.6726251526251523
453,1.6804884004884004
454,1.713064713064713
455,1.7366544566544566
456,1.7613675213675213
457,1.777094017094017
458,1.8051770451770448
459,1.7939438339438338
460,1.7905738705738703
461,1.7928205128205128
462,1.795067155067155
463,1.7883272283272282
464,1.795067155067155
465,1.777094017094017
466,1.7546275946275949
467,1.678241758241758
468,1.656898656898657
469,1.6692551892551892
470,1.7074481074481074
471,1.737777777777778
472,1.756874236874237
473,1.7658608058608058
474,1.7546275946275949
475,1.7332844932844933
476,1.737777777777778
477,1.7366544566544566
478,1.7456410256410255
479,1.72991452991453
480,1.7074481074481074
481,1.7254212454212454
482,1.713064713064713
483,1.713064713064713
484,1.731037851037851
485,1.7265445665445665
486,1.74002442002442
487,1.813040293040293
488,1.957948717948718
489,2.0646642246642246
490,1.891672771672772
491,1.6074725274725274
492,1.3929181929181929
493,1.2727228327228328
494,1.144664224664225
495,1.0244688644688644
496,0.9694261294261294
497,0.9188766788766788
498,0.9413431013431014
499,1.1255677655677656
500,1.3401221001221002
501,1.631062271062271
502,1.8164102564102564
503,1.8984126984126983
504,1.9197557997558
505,1.947838827838828
506,1.955702075702076
507,1.9624420024420024
508,1.9714285714285715
509,1.993894993894994
510,1.984908424908425
511,1.9815384615384612
512,2.0006349206349205
513,1.986031746031746
514,1.9894017094017091
515,2.006251526251526
516,2.032087912087912
517,2.0556776556776555
518,2.1062271062271063
519,2.1298168498168497
520,2.147789987789988
521,2.173626373626373
522,2.19946275946276
523,2.230915750915751
524,2.274725274725274
525,2.320781440781441
526,2.347741147741148
527,2.3926739926739926
528,2.414017094017094
529,2.4308669108669108
530,2.4342368742368743
531,2.4376068376068374
532,2.4207570207570206
533,2.357851037851038
534,2.283711843711844
535,2.1904761904761907
536,2.125323565323565
537,2.021978021978022
538,1.947838827838828
539,1.855726495726496
540,1.7714774114774114
541,1.7242979242979244
542,1.6748717948717948
543,1.6254456654456657
544,1.5917460317460317
545,1.574896214896215
546,1.565909645909646
547,1.5524297924297925
548,1.5265934065934066
549,1.5243467643467643
550,1.541196581196581
551,1.558046398046398
552,1.558046398046398
553,1.549059829059829
554,1.549059829059829
555,1.5569230769230769
556,1.5704029304029303
557,1.5614163614163614
558,1.5602930402930404
559,1.5771428571428572
560,1.585006105006105
561,1.5726495726495726
562,1.5838827838827838
563,1.593992673992674
564,1.5917460317460317
565,1.6029792429792429
566,1.5872527472527471
567,1.6018559218559218
568,1.5984859584859583
569,1.6018559218559218
570,1.6142124542124543
571,1.615335775335775
572,1.604102564102564
573,1.6108424908424908
574,1.6187057387057386
575,1.6243223443223442
576,1.6231990231990232
577,1.6265689865689863
578,1.6355555555555557
579,1.636678876678877
580,1.6467887667887668
581,1.6557753357753358
582,1.6501587301587302
583,1.6501587301587302
584,1.6467887667887668
585,1.6467887667887668
586,1.6467887667887668
587,1.6647619047619049
588,1.6703785103785105
589,1.6715018315018315
590,1.6557753357753358
591,1.6726251526251523
592,1.677118437118437
593,1.665885225885226
594,1.6636385836385836
595,1.6715018315018315
596,1.665885225885226
597,1.6737484737484738
598,1.6748717948717948
599,1.6748717948717948
600,1.6613919413919414
601,1.6681318681318682
602,1.665885225885226
603,1.6692551892551892
604,1.665885225885226
605,1.6748717948717948
606,1.677118437118437
607,1.677118437118437
608,1.677118437118437
609,1.678241758241758
610,1.675995115995116
611,1.6726251526251523
612,1.6737484737484738
613,1.686105006105006
614,1.683858363858364
615,1.6827350427350427
616,1.6692551892551892
617,1.6726251526251523
618,1.6816117216117217
619,1.6793650793650794
620,1.6872283272283273
621,1.704078144078144
622,1.7007081807081808
623,1.74002442002442
624,1.7827106227106226
625,1.8085470085470088
626,1.81978021978022
627,1.8343833943833945
628,1.8175335775335772
629,1.820903540903541
630,1.811916971916972
631,1.7726007326007327
632,1.7467643467643468
633,1.7433943833943837
634,1.7321611721611725
635,1.7085714285714286
636,1.7007081807081808
637,1.6950915750915752
638,1.704078144078144
639,1.7063247863247863
640,1.7141880341880342
641,1.6950915750915752
642,1.6737484737484738
643,1.7737240537240535
644,2.1432967032967034
645,2.76
646,3.4205128205128204
647,3.496898656898657
648,3.450842490842491
649,2.922881562881563
650,2.2814652014652013
651,1.8793162393162397
652,1.6905982905982906
653,1.6164590964590964
654,1.573772893772894
655,1.54007326007326
656,1.5187301587301587
657,1.5086202686202683
658,1.4985103785103786
659,1.494017094017094
660,1.503003663003663
661,1.4928937728937728
662,1.503003663003663
663,1.5007570207570209
664,1.503003663003663
665,1.4996336996336996
666,1.4973870573870574
667,1.5108669108669108
668,1.5243467643467643
669,1.52996336996337
670,1.5187301587301587
671,1.5277167277167276
672,1.5243467643467643
673,1.5265934065934066
674,1.5434432234432234
675,1.5557997557997558
676,1.5614163614163614
677,1.5625396825396825
678,1.5704029304029303
679,1.5771428571428572
680,1.5782661782661782
681,1.5883760683760684
682,1.5984859584859583
683,1.6142124542124543
684,1.6231990231990232
685,1.6288156288156288
686,1.6243223443223442
687,1.6288156288156288
688,1.6187057387057386
689,1.64004884004884
690,1.6535286935286937
691,1.6681318681318682
692,1.6816117216117217
693,1.6984615384615385
694,1.713064713064713
695,1.7366544566544566
696,1.7523809523809524
697,1.757997557997558
698,1.7703540903540904
699,1.7726007326007327
700,1.7748473748473748
701,1.768107448107448
702,1.7669841269841269
703,1.7737240537240535
704,1.7613675213675213
705,1.757997557997558
706,1.75013431013431
707,1.7647374847374848
708,1.7658608058608058
709,1.7523809523809524
710,1.7456410256410255
711,1.757997557997558
712,1.7613675213675213
713,1.7535042735042734
714,1.7523809523809524
715,1.768107448107448
716,1.7726007326007327
717,1.7815873015873016
718,1.7894505494505497
719,1.7872039072039072
720,1.795067155067155
721,1.7939438339438338
722,1.784957264957265
723,1.7973137973137974
724,1.7905738705738703
725,1.777094017094017
726,1.7714774114774114
727,1.7804639804639804
728,1.7894505494505497
729,1.7872039072039072
730,1.7973137973137974
731,1.7905738705738703
732,1.7815873015873016
733,1.7872039072039072
734,1.7984371184371184
735,1.7984371184371184
736,1.7905738705738703
737,1.7905738705738703
738,1.7973137973137974
739,1.8018070818070815
740,1.7872039072039072
741,1.7872039072039072
742,1.7815873015873016
743,1.7815873015873016
744,1.7939438339438338
745,1.779340659340659
746,1.7973137973137974
747,1.7894505494505497
748,1.7815873015873016
749,1.7827106227106226
750,1.7860805860805862
751,1.7714774114774114
752,1.75013431013431
753,1.7613675213675213
754,1.775970695970696
755,1.783833943833944
756,1.8164102564102564
757,1.8433699633699636
758,1.8736996336996337
759,1.904029304029304
760,1.9085225885225885
761,1.893919413919414
762,1.875946275946276
763,1.8647130647130647
764,1.848986568986569
765,1.8051770451770448
766,1.7905738705738703
767,1.7860805860805862
768,1.7827106227106226
769,1.7782173382173383
770,1.7714774114774114
771,1.7714774114774114
772,1.749010989010989
773,1.757997557997558
774,1.775970695970696
775,1.757997557997558
776,1.784957264957265
777,1.941098901098901
778,2.3735775335775338
779,3.0262271062271062
780,3.496898656898657
781,3.495775335775336
782,3.3261538461538462
783,2.688107448107448
784,2.137680097680098
785,1.8366300366300363
786,1.6917216117216116
787,1.632185592185592
788,1.5872527472527471
789,1.585006105006105
790,1.565909645909646
791,1.54007326007326
792,1.5254700854700856
793,1.5333333333333334
794,1.5288400488400489
795,1.5501831501831502
796,1.5456898656898657
797,1.5378266178266178
798,1.5310866910866912
799,1.5243467643467643
800,1.541196581196581
801,1.5333333333333334
802,1.5501831501831502
803,1.541196581196581
804,1.5524297924297925
805,1.5602930402930404
806,1.5704029304029303
807,1.5602930402930404
808,1.5591697191697191
809,1.558046398046398
810,1.576019536019536
811,1.5996092796092796
812,1.5962393162393165
813,1.615335775335775
814,1.6085958485958487
815,1.6243223443223442
816,1.6265689865689863
817,1.6546520146520147
818,1.6557753357753358
819,1.658021978021978
820,1.6726251526251523
821,1.6917216117216116
822,1.702954822954823
823,1.7231746031746031
824,1.7445177045177045
825,1.7546275946275949
826,1.757997557997558
827,1.7714774114774114
828,1.7726007326007327
829,1.757997557997558
830,1.7433943833943837
831,1.7456410256410255
832,1.7433943833943837
833,1.7231746031746031
834,1.7198046398046398
835,1.7265445665445665
836,1.711941391941392
837,1.704078144078144
838,1.7141880341880342
839,1.6883516483516483
840,1.6995848595848595
841,1.7063247863247863
842,1.7164346764346765
843,1.722051282051282
844,1.722051282051282
845,1.7242979242979244
846,1.7175579975579975
847,1.713064713064713
848,1.722051282051282
849,1.7175579975579975
850,1.7265445665445665
851,1.737777777777778
852,1.7411477411477412
853,1.7321611721611725
854,1.7254212454212454
855,1.7276678876678877
856,1.7355311355311356
857,1.7276678876678877
858,1.7287912087912087
859,1.74002442002442
860,1.7276678876678877
861,1.722051282051282
862,1.7198046398046398
863,1.72991452991453
864,1.7366544566544566
865,1.722051282051282
866,1.7276678876678877
867,1.75013431013431
868,1.7422710622710622
869,1.738901098901099
870,1.7456410256410255
871,1.7512576312576311
872,1.749010989010989
873,1.7355311355311356
874,1.7523809523809524
875,1.749010989010989
876,1.7726007326007327
877,1.7669841269841269
878,1.7613675213675213
879,1.7737240537240535
880,1.7692307692307692
881,1.7815873015873016
882,1.7737240537240535
883,1.7692307692307692
884,1.7647374847374848
885,1.7613675213675213
886,1.7624908424908423
887,1.777094017094017
888,1.7658608058608058
889,1.756874236874237
890,1.75013431013431
891,1.7523809523809524
892,1.7456410256410255
893,1.7445177045177045
894,1.7422710622710622
895,1.7602442002442005
896,1.8186568986568987
897,1.8590964590964592
898,1.8849328449328449
899,1.8972893772893773
900,1.877069597069597
901,1.869206349206349
902,1.8546031746031744
903,1.84
904,1.823150183150183
905,1.7916971916971918
906,1.7557509157509157
907,1.749010989010989
908,1.7535042735042734
909,1.7546275946275949
910,1.737777777777778
911,1.7355311355311356
912,1.7287912087912087
913,1.7613675213675213
914,1.7332844932844933
915,1.7198046398046398
916,1.8253968253968251
917,2.165763125763126
918,2.7723565323565325
919,3.3856898656898657
920,3.495775335775336
921,3.35985347985348
922,2.830769230769231
923,2.237655677655677
924,1.881562881562881
925,1.7096947496947497
926,1.6265689865689863
927,1.5838827838827838
928,1.5625396825396825
929,1.5591697191697191
930,1.5333333333333334
931,1.5187301587301587
932,1.5164835164835164
933,1.5232234432234433
934,1.5041269841269842
935,1.5153601953601954
936,1.5153601953601954
937,1.5131135531135531
938,1.5176068376068377
939,1.5243467643467643
940,1.5176068376068377
941,1.5243467643467643
942,1.5232234432234433
943,1.511990231990232
944,1.5277167277167276
945,1.5254700854700856
946,1.5367032967032968
947,1.5445665445665446
948,1.5636630036630037
949,1.5557997557997558
950,1.5546764346764346
951,1.5636630036630037
952,1.5636630036630037
953,1.574896214896215
954,1.5782661782661782
955,1.5782661782661782
956,1.6052258852258852
957,1.615335775335775
958,1.6422954822954825
959,1.64004884004884
960,1.6681318681318682
961,1.6703785103785105
962,1.677118437118437
963,1.7153113553113553
964,1.7321611721611725
965,1.7624908424908423
966,1.749010989010989
967,1.7433943833943837
968,1.7344078144078143
969,1.74002442002442
970,1.7456410256410255
971,1.7332844932844933
972,1.7209279609279609
973,1.702954822954823
974,1.6681318681318682
975,1.6029792429792429
976,1.549059829059829
977,1.565909645909646
978,1.615335775335775
979,1.658021978021978
980,1.6692551892551892
981,1.6793650793650794
982,1.6647619047619049
983,1.675995115995116
984,1.6793650793650794
985,1.6647619047619049
986,1.6692551892551892
987,1.6804884004884004
988,1.6827350427350427
989,1.667008547008547
990,1.675995115995116
991,1.7186813186813186
992,1.8085470085470088
993,1.9658119658119655
994,2.3140415140415143
995,2.9094017094017093
996,3.4317460317460315
997,3.318290598290598
998,2.6836141636141635
999,2.187106227106227
1000,1.8804395604395605
1001,1.749010989010989
1002,1.659145299145299
1003,1.6097191697191695
1004,1.574896214896215
1005,1.576019536019536
1006,1.5602930402930404
1007,1.5445665445665446
1008,1.5557997557997558
1009,1.5591697191697191
1010,1.546813186813187
1011,1.558046398046398
1012,1.5569230769230769
1013,1.5692796092796093
1014,1.574896214896215
1015,1.568156288156288
1016,1.5636630036630037
1017,1.5827594627594628
1018,1.585006105006105
1019,1.5782661782661782
1020,1.585006105006105
1021,1.6052258852258852
1022,1.6085958485958487
1023,1.6074725274725274
1024,1.6265689865689863
1025,1.6243223443223442
1026,1.6108424908424908
1027,1.6108424908424908
1028,1.6288156288156288
1029,1.6434188034188033
1030,1.6467887667887668
1031,1.6490354090354091
1032,1.6703785103785105
1033,1.6681318681318682
1034,1.677118437118437
1035,1.7007081807081808
1036,1.7209279609279609
1037,1.7366544566544566
1038,1.7422710622710622
1039,1.7557509157509157
1040,1.7557509157509157
1041,1.7411477411477412
1042,1.704078144078144
1043,1.678241758241758
1044,1.6681318681318682
1045,1.6636385836385836
1046,1.6288156288156288
1047,1.638925518925519
1048,1.6164590964590964
1049,1.6108424908424908
1050,1.6108424908424908
1051,1.5951159951159952
1052,1.604102564102564
1053,1.5996092796092796
1054,1.5951159951159952
1055,1.6052258852258852
1056,1.604102564102564
1057,1.613089133089133
1058,1.6052258852258852
1059,1.6007326007326008
1060,1.5984859584859583
1061,1.613089133089133
1062,1.6063492063492064
1063,1.61982905982906
1064,1.6288156288156288
1065,1.6299389499389498
1066,1.631062271062271
1067,1.636678876678877
1068,1.6333089133089134
1069,1.6288156288156288
1070,1.636678876678877
1071,1.6378021978021975
1072,1.6501587301587302
1073,1.6422954822954825
1074,1.6546520146520147
1075,1.6546520146520147
1076,1.6715018315018315
1077,1.6703785103785105
1078,1.6703785103785105
1079,1.665885225885226
1080,1.6613919413919414
1081,1.678241758241758
1082,1.6883516483516483
1083,1.6827350427350427
1084,1.6793650793650794
1085,1.6917216117216116
1086,1.683858363858364
1087,1.6715018315018315
1088,1.6804884004884004
1089,1.7007081807081808
1090,1.6928449328449329
1091,1.678241758241758
1092,1.6793650793650794
1093,1.6950915750915752
1094,1.686105006105006
1095,1.6984615384615385
1096,1.684981684981685
1097,1.6928449328449329
1098,1.702954822954823
1099,1.704078144078144
1100,1.7063247863247863
1101,1.7018315018315018
1102,1.7063247863247863
1103,1.705201465201465
1104,1.7063247863247863
1105,1.7074481074481074
1106,1.7085714285714286
1107,1.710818070818071
1108,1.705201465201465
1109,1.7164346764346765
1110,1.7164346764346765
1111,1.7265445665445665
1112,1.7186813186813186
1113,1.7164346764346765
1114,1.7276678876678877
1115,1.7265445665445665
1116,1.713064713064713
1117,1.710818070818071
1118,1.722051282051282
1119,1.7198046398046398
1120,1.7231746031746031
1121,1.7287912087912087
1122,1.7344078144078143
1123,1.7321611721611725
1124,1.7276678876678877
1125,1.7344078144078143
1126,1.7456410256410255
1127,1.7512576312576311
1128,1.74002442002442
1129,1.7332844932844933
1130,1.7366544566544566
1131,1.749010989010989
1132,1.75013431013431
1133,1.7602442002442005
1134,1.7602442002442005
1135,1.7433943833943837
1136,1.74002442002442
1137,1.7321611721611725
1138,1.7366544566544566
1139,1.757997557997558
1140,1.7872039072039072
1141,1.8377533577533576
1142,1.8647130647130647
1143,1.8894261294261292
1144,1.8961660561660565
1145,1.8849328449328449
1146,1.869206349206349
1147,1.848986568986569
1148,1.8377533577533576
1149,1.811916971916972
1150,1.8107936507936508
1151,1.7939438339438338
1152,1.7905738705738703
1153,1.777094017094017
1154,1.7692307692307692
1155,1.7613675213675213
1156,1.768107448107448
1157,1.7748473748473748
1158,1.7523809523809524
1159,1.7344078144078143
1160,1.832136752136752
1161,2.191599511599512
1162,2.8363858363858365
1163,3.4744322344322343
1164,3.495775335775336
1165,3.4946520146520146
1166,2.997020757020757
1167,2.321904761904762
1168,1.8984126984126983
1169,1.7276678876678877
1170,1.6501587301587302
1171,1.6052258852258852
1172,1.5704029304029303
1173,1.5602930402930404
1174,1.5569230769230769
1175,1.5333333333333334
1176,1.54007326007326
1177,1.5288400488400489
1178,1.5254700854700856
1179,1.5254700854700856
1180,1.5277167277167276
1181,1.5243467643467643
1182,1.5187301587301587
1183,1.5322100122100122
1184,1.5322100122100122
1185,1.5434432234432234
1186,1.5423199023199023
1187,1.546813186813187
1188,1.54007326007326
1189,1.546813186813187
1190,1.5423199023199023
1191,1.5524297924297925
1192,1.558046398046398
1193,1.5782661782661782
1194,1.576019536019536
1195,1.586129426129426
1196,1.585006105006105
1197,1.6052258852258852
1198,1.5984859584859583
1199,1.6063492063492064
1200,1.6108424908424908
1201,1.615335775335775
1202,1.6142124542124543
1203,1.61982905982906
1204,1.6288156288156288
1205,1.6355555555555557
1206,1.6333089133089134
1207,1.6445421245421246
1208,1.6748717948717948
1209,1.683858363858364
1210,1.686105006105006
1211,1.6995848595848595
1212,1.710818070818071
1213,1.731037851037851
1214,1.7714774114774114
1215,1.7804639804639804
1216,1.7726007326007327
1217,1.7624908424908423
1218,1.7692307692307692
1219,1.7804639804639804
1220,1.7804639804639804
1221,1.7815873015873016
1222,1.7804639804639804
1223,1.777094017094017
1224,1.7883272283272282
1225,1.7692307692307692
1226,1.7658608058608058
1227,1.7737240537240535
1228,1.7737240537240535
1229,1.7669841269841269
1230,1.7737240537240535
1231,1.779340659340659
1232,1.7714774114774114
1233,1.777094017094017
1234,1.777094017094017
1235,1.777094017094017
1236,1.7748473748473748
1237,1.7658608058608058
1238,1.7726007326007327
1239,1.777094017094017
1240,1.7883272283272282
1241,1.7905738705738703
1242,1.8074236874236875
1243,1.796190476190476
1244,1.7995604395604397
1245,1.7916971916971918
1246,1.8018070818070815
1247,1.7916971916971918
1248,1.811916971916972
1249,1.8096703296703296
1250,1.811916971916972
1251,1.8096703296703296
1252,1.8164102564102564
1253,1.8152869352869352
1254,1.8175335775335772
1255,1.8051770451770448
1256,1.8074236874236875
1257,1.8152869352869352
1258,1.8107936507936508
1259,1.804053724053724
1260,1.804053724053724
1261,1.7883272283272282
1262,1.7905738705738703
1263,1.7984371184371184
1264,1.8096703296703296
1265,1.8074236874236875
1266,1.795067155067155
1267,1.8085470085470088
1268,1.7995604395604397
1269,1.7995604395604397
1270,1.8085470085470088
1271,1.802930402930403
1272,1.783833943833944
1273,1.784957264957265
1274,1.7692307692307692
1275,1.7703540903540904
1276,1.7726007326007327
1277,1.7815873015873016
1278,1.7782173382173383
1279,1.820903540903541
1280,1.86021978021978
1281,1.8781929181929184
1282,1.8972893772893773
1283,1.9175091575091572
1284,1.8927960927960927
1285,1.8714529914529916
1286,1.8714529914529916
1287,1.855726495726496
1288,1.822026862026862
1289,1.804053724053724
1290,1.7714774114774114
1291,1.7782173382173383
1292,1.7456410256410255
1293,1.7445177045177045
1294,1.74002442002442
1295,1.75013431013431
1296,1.7512576312576311
1297,1.7647374847374848
1298,1.7411477411477412
1299,1.7647374847374848
1300,1.9747985347985348
1301,2.483663003663004
1302,3.152039072039072
1303,3.495775335775336
1304,3.498021978021978
1305,3.4137728937728937
1306,2.7285470085470087
1307,2.125323565323565
1308,1.820903540903541
1309,1.667008547008547
1310,1.5906227106227109
1311,1.5647863247863247
1312,1.538949938949939
1313,1.5187301587301587
1314,1.5232234432234433
1315,1.514236874236874
1316,1.4861538461538462
1317,1.4884004884004884
1318,1.495140415140415
1319,1.4985103785103786
1320,1.520976800976801
1321,1.5254700854700856
1322,1.5097435897435898
1323,1.514236874236874
1324,1.5254700854700856
1325,1.5355799755799755
1326,1.5333333333333334
1327,1.5265934065934066
1328,1.5232234432234433
1329,1.5153601953601954
1330,1.5265934065934066
1331,1.5535531135531135
1332,1.5546764346764346
1333,1.565909645909646
1334,1.574896214896215
1335,1.5782661782661782
1336,1.567032967032967
1337,1.5793894993894997
1338,1.5771428571428572
1339,1.5962393162393165
1340,1.6007326007326008
1341,1.6063492063492064
1342,1.6142124542124543
1343,1.6467887667887668
1344,1.658021978021978
1345,1.667008547008547
1346,1.6950915750915752
1347,1.7074481074481074
1348,1.7209279609279609
1349,1.7332844932844933
1350,1.731037851037851
1351,1.7175579975579975
1352,1.7332844932844933
1353,1.731037851037851
1354,1.7186813186813186
1355,1.7153113553113553
1356,1.7242979242979244
1357,1.7164346764346765
1358,1.6917216117216116
1359,1.6917216117216116
1360,1.6917216117216116
1361,1.7063247863247863
1362,1.704078144078144
1363,1.6950915750915752
1364,1.7085714285714286
1365,1.704078144078144
1366,1.7018315018315018
1367,1.7231746031746031
1368,1.7186813186813186
1369,1.7096947496947497
1370,1.7186813186813186
1371,1.722051282051282
1372,1.722051282051282
1373,1.7254212454212454
1374,1.731037851037851
1375,1.7209279609279609
1376,1.7186813186813186
1377,1.7355311355311356
1378,1.7242979242979244
1379,1.7242979242979244
1380,1.7198046398046398
1381,1.731037851037851
1382,1.72991452991453
1383,1.731037851037851
1384,1.72991452991453
1385,1.7265445665445665
1386,1.731037851037851
1387,1.7287912087912087
1388,1.7254212454212454
1389,1.7287912087912087
1390,1.7164346764346765
1391,1.7344078144078143
1392,1.7422710622710622
1393,1.7332844932844933
1394,1.7445177045177045
1395,1.7332844932844933
1396,1.7321611721611725
1397,1.7254212454212454
1398,1.7366544566544566
1399,1.74002442002442
1400,1.749010989010989
1401,1.7332844932844933
1402,1.7332844932844933
1403,1.7355311355311356
1404,1.7456410256410255
1405,1.7546275946275949
1406,1.7456410256410255
1407,1.7422710622710622
1408,1.738901098901099
1409,1.7366544566544566
1410,1.7478876678876678
1411,1.7478876678876678
1412,1.74002442002442
1413,1.7478876678876678
1414,1.74002442002442
1415,1.722051282051282
1416,1.7287912087912087
1417,1.7242979242979244
1418,1.7074481074481074
1419,1.713064713064713
1420,1.738901098901099
1421,1.7366544566544566
1422,1.7782173382173383
1423,1.8164102564102564
1424,1.8253968253968251
1425,1.8444932844932844
1426,1.8703296703296703
1427,1.8624664224664225
1428,1.8546031746031744
1429,1.8388766788766788
1430,1.8287667887667889
1431,1.7905738705738703
1432,1.7591208791208792
1433,1.7478876678876678
1434,1.74002442002442
1435,1.7332844932844933
1436,1.7355311355311356
1437,1.74002442002442
1438,1.7355311355311356
1439,1.7186813186813186
1440,1.7523809523809524
1441,1.7433943833943837
1442,1.737777777777778
1443,1.914139194139194
1444,2.4016605616605617
1445,3.054310134310134
1446,3.4946520146520146
1447,3.495775335775336
1448,3.3890598290598293
1449,2.738656898656899
1450,2.145543345543345
1451,1.8051770451770448
1452,1.6703785103785105
1453,1.5996092796092796
1454,1.5625396825396825
1455,1.5445665445665446
1456,1.5176068376068377
1457,1.511990231990232
1458,1.4906471306471307
1459,1.4895238095238097
1460,1.483907203907204
1461,1.4906471306471307
1462,1.4895238095238097
1463,1.4962637362637363
1464,1.4884004884004884
1465,1.494017094017094
1466,1.4884004884004884
1467,1.4805372405372406
1468,1.4827838827838828
1469,1.4962637362637363
1470,1.5063736263736265
1471,1.495140415140415
1472,1.5052503052503052
1473,1.5097435897435898
1474,1.5153601953601954
1475,1.5254700854700856
1476,1.5243467643467643
1477,1.5243467643467643
1478,1.5333333333333334
1479,1.5344566544566545
1480,1.5614163614163614
1481,1.5535531135531135
1482,1.5535531135531135
1483,1.565909645909646
1484,1.576019536019536
1485,1.5894993894993894
1486,1.620952380952381
1487,1.6175824175824176
1488,1.632185592185592
1489,1.6703785103785105
1490,1.659145299145299
1491,1.6962148962148962
1492,1.7063247863247863
1493,1.7164346764346765
1494,1.7175579975579975
1495,1.7175579975579975
1496,1.7242979242979244
1497,1.7007081807081808
1498,1.711941391941392
1499,1.693968253968254
1500,1.6883516483516483
1501,1.6928449328449329
1502,1.677118437118437
1503,1.683858363858364
1504,1.677118437118437
1505,1.678241758241758
1506,1.684981684981685
1507,1.6928449328449329
1508,1.678241758241758
1509,1.675995115995116
1510,1.6816117216117217
1511,1.6804884004884004
1512,1.6894749694749696
1513,1.6984615384615385
1514,1.6894749694749696
1515,1.6917216117216116
1516,1.704078144078144
1517,1.704078144078144
1518,1.7018315018315018
1519,1.7063247863247863
1520,1.7164346764346765
1521,1.710818070818071
1522,1.704078144078144
1523,1.704078144078144
1524,1.6995848595848595
1525,1.7141880341880342
1526,1.7018315018315018
1527,1.704078144078144
1528,1.702954822954823
1529,1.711941391941392
1530,1.710818070818071
1531,1.704078144078144
1532,1.7254212454212454
1533,1.7186813186813186
1534,1.7242979242979244
1535,1.7254212454212454
1536,1.7355311355311356
1537,1.7344078144078143
1538,1.738901098901099
1539,1.7355311355311356
1540,1.7467643467643468
1541,1.7422710622710622
1542,1.738901098901099
1543,1.7456410256410255
1544,1.7512576312576311
1545,1.7692307692307692
1546,1.7591208791208792
1547,1.7523809523809524
1548,1.7602442002442005
1549,1.757997557997558
1550,1.749010989010989
1551,1.7636141636141636
1552,1.7624908424908423
1553,1.756874236874237
1554,1.7647374847374848
1555,1.7613675213675213
1556,1.7737240537240535
1557,1.7692307692307692
1558,1.777094017094017
1559,1.7726007326007327
1560,1.768107448107448
1561,1.7726007326007327
1562,1.7602442002442005
1563,1.7669841269841269
1564,1.7692307692307692
1565,1.7782173382173383
1566,1.7602442002442005
1567,1.7535042735042734
1568,1.75013431013431
1569,1.7456410256410255
1570,1.7624908424908423
1571,1.7636141636141636
1572,1.8018070818070815
1573,1.847863247863248
1574,1.8736996336996337
1575,1.891672771672772
1576,1.9085225885225885
1577,1.8804395604395605
1578,1.8736996336996337
1579,1.85010989010989
1580,1.85010989010989
1581,1.813040293040293
1582,1.804053724053724
1583,1.7726007326007327
1584,1.7703540903540904
1585,1.7669841269841269
1586,1.7692307692307692
1587,1.7557509157509157
1588,1.7692307692307692
1589,1.7647374847374848
1590,1.779340659340659
1591,1.7456410256410255
1592,1.7321611721611725
1593,1.883809523809524
1594,2.341001221001221
1595,2.9936507936507937
1596,3.4912820512820515
1597,3.495775335775336
1598,3.136312576312576
1599,2.575775335775336
1600,2.0927472527472526
1601,1.841123321123321
1602,1.6984615384615385
1603,1.6490354090354091
1604,1.6097191697191695
1605,1.5917460317460317
1606,1.5614163614163614
1607,1.5445665445665446
1608,1.5378266178266178
1609,1.51985347985348
1610,1.5322100122100122
1611,1.5254700854700856
1612,1.54007326007326
1613,1.5456898656898657
1614,1.5367032967032968
1615,1.5423199023199023
1616,1.5232234432234433
1617,1.5378266178266178
1618,1.5456898656898657
1619,1.5367032967032968
1620,1.5569230769230769
1621,1.5501831501831502
1622,1.5546764346764346
1623,1.541196581196581
1624,1.549059829059829
1625,1.5715262515262516
1626,1.5827594627594628
1627,1.573772893772894
1628,1.5805128205128205
1629,1.5883760683760684
1630,1.5984859584859583
1631,1.604102564102564
1632,1.6265689865689863
1633,1.6187057387057386
1634,1.6445421245421246
1635,1.6490354090354091
1636,1.6524053724053724
1637,1.6737484737484738
1638,1.6883516483516483
1639,1.7063247863247863
1640,1.7265445665445665
1641,1.7411477411477412
1642,1.7512576312576311
1643,1.749010989010989
1644,1.7467643467643468
1645,1.7478876678876678
1646,1.7613675213675213
1647,1.7433943833943837
1648,1.7287912087912087
1649,1.7276678876678877
1650,1.7254212454212454
1651,1.711941391941392
1652,1.704078144078144
1653,1.7007081807081808
1654,1.710818070818071
1655,1.6962148962148962
1656,1.7007081807081808
1657,1.6984615384615385
1658,1.7175579975579975
1659,1.710818070818071
1660,1.7175579975579975
1661,1.7186813186813186
1662,1.7186813186813186
1663,1.7164346764346765
1664,1.7164346764346765
1665,1.7254212454212454
1666,1.7355311355311356
1667,1.7254212454212454
1668,1.722051282051282
1669,1.7355311355311356
1670,1.7355311355311356
1671,1.7254212454212454
1672,1.7344078144078143
1673,1.7164346764346765
1674,1.7231746031746031
1675,1.713064713064713
1676,1.7321611721611725
1677,1.731037851037851
1678,1.7265445665445665
1679,1.7287912087912087
1680,1.731037851037851
1681,1.7209279609279609
1682,1.7231746031746031
1683,1.7456410256410255
1684,1.7546275946275949
1685,1.74002442002442
1686,1.7411477411477412
1687,1.757997557997558
1688,1.7512576312576311
1689,1.7411477411477412
1690,1.7512576312576311
1691,1.7478876678876678
1692,1.7591208791208792
1693,1.7669841269841269
1694,1.7557509157509157
1695,1.75013431013431
1696,1.7624908424908423
1697,1.7602442002442005
1698,1.7557509157509157
1699,1.7523809523809524
1700,1.7456410256410255
1701,1.7411477411477412
1702,1.75013431013431
1703,1.768107448107448
1704,1.7624908424908423
1705,1.756874236874237
1706,1.7591208791208792
1707,1.7624908424908423
1708,1.75013431013431
1709,1.7445177045177045
1710,1.757997557997558
1711,1.7613675213675213
1712,1.757997557997558
1713,1.7602442002442005
1714,1.7669841269841269
1715,1.7557509157509157
1716,1.756874236874237
1717,1.7366544566544566
1718,1.7512576312576311
1719,1.7546275946275949
1720,1.7422710622710622
1721,1.7591208791208792
1722,1.7467643467643468
1723,1.749010989010989
1724,1.7321611721611725
1725,1.7242979242979244
1726,1.7433943833943837
1727,1.7467643467643468
1728,1.757997557997558
1729,1.7984371184371184
1730,1.8355067155067155
1731,1.8658363858363856
1732,1.8804395604395605
1733,1.857973137973138
1734,1.841123321123321
1735,1.84
1736,1.822026862026862
1737,1.784957264957265
1738,1.7714774114774114
1739,1.7433943833943837
1740,1.7445177045177045
1741,1.72991452991453
1742,1.7254212454212454
1743,1.7265445665445665
1744,1.7254212454212454
1745,1.7209279609279609
1746,1.7422710622710622
1747,1.7276678876678877
1748,1.7198046398046398
1749,1.8343833943833945
1750,2.2252991452991453
1751,2.8667155067155066
1752,3.4205128205128204
1753,3.495775335775336
1754,3.163272283272283
1755,2.6431746031746037
1756,2.1286935286935287
1757,1.832136752136752
1758,1.6681318681318682
1759,1.6108424908424908
1760,1.5906227106227109
1761,1.5715262515262516
1762,1.5535531135531135
1763,1.5456898656898657
1764,1.538949938949939
1765,1.51985347985348
1766,1.51985347985348
1767,1.520976800976801
1768,1.5164835164835164
1769,1.5367032967032968
1770,1.5355799755799755
1771,1.52996336996337
1772,1.5333333333333334
1773,1.5322100122100122
1774,1.5355799755799755
1775,1.5445665445665446
1776,1.5288400488400489
1777,1.5378266178266178
1778,1.5445665445665446
1779,1.5614163614163614
1780,1.5569230769230769
1781,1.5636630036630037
1782,1.5501831501831502
1783,1.5569230769230769
1784,1.5793894993894997
1785,1.5782661782661782
1786,1.5962393162393165
1787,1.5838827838827838
1788,1.5805128205128205
1789,1.6063492063492064
1790,1.613089133089133
1791,1.6378021978021975
1792,1.6456654456654456
1793,1.6602686202686203
1794,1.6872283272283273
1795,1.7074481074481074
1796,1.722051282051282
1797,1.737777777777778
1798,1.7546275946275949
1799,1.7636141636141636
1800,1.7669841269841269
1801,1.7557509157509157
1802,1.7332844932844933
1803,1.7254212454212454
1804,1.7198046398046398
1805,1.7153113553113553
1806,1.7085714285714286
1807,1.6905982905982906
1808,1.6984615384615385
1809,1.6883516483516483
1810,1.6816117216117217
1811,1.675995115995116
1812,1.6950915750915752
1813,1.6995848595848595
1814,1.7063247863247863
1815,1.705201465201465
1816,1.704078144078144
1817,1.7355311355311356
1818,1.7467643467643468
1819,1.7546275946275949
1820,1.7512576312576311
1821,1.749010989010989
1822,1.7186813186813186
1823,1.6703785103785105
1824,1.6422954822954825
1825,1.6333089133089134
1826,1.6524053724053724
1827,1.6950915750915752
1828,1.711941391941392
1829,1.74002442002442
1830,1.7546275946275949
1831,1.7366544566544566
1832,1.74002442002442
1833,1.7254212454212454
1834,1.7366544566544566
1835,1.738901098901099
1836,1.7512576312576311
1837,1.7894505494505497
1838,1.8164102564102564
1839,2.005128205128205
1840,2.4567032967032967
1841,3.08014652014652
1842,3.495775335775336
1843,3.495775335775336
1844,3.186862026862027
1845,2.584761904761905
1846,2.097240537240537
1847,1.827643467643468
1848,1.722051282051282
1849,1.6793650793650794
1850,1.6467887667887668
1851,1.6276923076923078
1852,1.6265689865689863
1853,1.6220757020757022
1854,1.6052258852258852
1855,1.5973626373626373
1856,1.6007326007326008
1857,1.586129426129426
1858,1.5704029304029303
1859,1.585006105006105
1860,1.6007326007326008
1861,1.6097191697191695
1862,1.6007326007326008
1863,1.592869352869353
1864,1.5984859584859583
1865,1.6052258852258852
1866,1.593992673992674
1867,1.585006105006105
1868,1.5962393162393165
1869,1.5984859584859583
1870,1.6097191697191695
1871,1.6220757020757022
1872,1.6378021978021975
1873,1.632185592185592
1874,1.6333089133089134
1875,1.6512820512820512
1876,1.6524053724053724
1877,1.667008547008547
1878,1.6681318681318682
1879,1.6905982905982906
1880,1.6984615384615385
1881,1.7344078144078143
1882,1.757997557997558
1883,1.7636141636141636
1884,1.784957264957265
1885,1.7905738705738703
1886,1.7782173382173383
1887,1.779340659340659
1888,1.7467643467643468
1889,1.7344078144078143
1890,1.7209279609279609
1891,1.686105006105006
1892,1.6737484737484738
1893,1.678241758241758
1894,1.667008547008547
1895,1.656898656898657
1896,1.6625152625152626
1897,1.6490354090354091
1898,1.656898656898657
1899,1.6445421245421246
1900,1.659145299145299
1901,1.6501587301587302
1902,1.6602686202686203
1903,1.659145299145299
1904,1.6793650793650794
1905,1.678241758241758
1906,1.675995115995116
1907,1.678241758241758
1908,1.6816117216117217
1909,1.683858363858364
1910,1.677118437118437
1911,1.677118437118437
1912,1.684981684981685
1913,1.6872283272283273
1914,1.6973382173382174
1915,1.6883516483516483
1916,1.6962148962148962
1917,1.705201465201465
1918,1.7007081807081808
1919,1.710818070818071
1920,1.7018315018315018
1921,1.7063247863247863
1922,1.7096947496947497
1923,1.722051282051282
1924,1.7287912087912087
1925,1.7332844932844933
1926,1.72991452991453
1927,1.722051282051282
1928,1.7242979242979244
1929,1.7422710622710622
1930,1.7366544566544566
1931,1.7355311355311356
1932,1.7344078144078143
1933,1.7366544566544566
1934,1.7478876678876678
1935,1.738901098901099
1936,1.7332844932844933
1937,1.7411477411477412
1938,1.7512576312576311
1939,1.7512576312576311
1940,1.7624908424908423
1941,1.7523809523809524
1942,1.7658608058608058
1943,1.757997557997558
1944,1.7467643467643468
1945,1.7546275946275949
1946,1.7512576312576311
1947,1.7433943833943837
1948,1.7535042735042734
1949,1.74002442002442
1950,1.7546275946275949
1951,1.7445177045177045
1952,1.7478876678876678
1953,1.737777777777778
1954,1.7478876678876678
1955,1.7344078144078143
1956,1.7276678876678877
1957,1.74002442002442
1958,1.7321611721611725
1959,1.7366544566544566
1960,1.7422710622710622
1961,1.7422710622710622
1962,1.7366544566544566
1963,1.7332844932844933
1964,1.7276678876678877
1965,1.7332844932844933
1966,1.7355311355311356
1967,1.7445177045177045
1968,1.7411477411477412
1969,1.7355311355311356
1970,1.7332844932844933
1971,1.7467643467643468
1972,1.738901098901099
1973,1.7478876678876678
1974,1.7344078144078143
1975,1.7321611721611725
1976,1.7535042735042734
1977,1.7557509157509157
1978,1.7478876678876678
1979,1.7433943833943837
1980,1.7467643467643468
1981,1.7445177045177045
1982,1.7422710622710622
1983,1.7321611721611725
1984,1.738901098901099
1985,1.749010989010989
1986,1.7512576312576311
1987,1.74002442002442
1988,1.74002442002442
1989,1.7422710622710622
1990,1.7512576312576311
1991,1.74002442002442
1992,1.7478876678876678
1993,1.74002442002442
1994,1.7344078144078143
1995,1.737777777777778
1996,1.7456410256410255
1997,1.74002442002442
1998,1.7445177045177045
1999,1.7433943833943837
