Index,II
0,1.7321611721611725
1,1.7478876678876678
2,1.749010989010989
3,1.7411477411477412
4,1.7726007326007327
5,1.7984371184371184
6,1.8085470085470088
7,1.800683760683761
8,1.7860805860805862
9,1.7478876678876678
10,1.7355311355311356
11,1.738901098901099
12,1.7467643467643468
13,1.7546275946275949
14,1.7344078144078143
15,1.7355311355311356
16,1.74002442002442
17,1.7198046398046398
18,1.722051282051282
19,1.7141880341880342
20,1.7287912087912087
21,1.7287912087912087
22,1.7265445665445665
23,1.749010989010989
24,1.75013431013431
25,1.7535042735042734
26,1.7366544566544566
27,1.7411477411477412
28,1.7456410256410255
29,1.72991452991453
30,1.7344078144078143
31,1.7445177045177045
32,1.7467643467643468
33,1.737777777777778
34,1.7355311355311356
35,1.7433943833943837
36,1.7523809523809524
37,1.7512576312576311
38,1.7557509157509157
39,1.7624908424908423
40,1.757997557997558
41,1.7535042735042734
42,1.756874236874237
43,1.7591208791208792
44,1.7613675213675213
45,1.775970695970696
46,1.777094017094017
47,1.7748473748473748
48,1.768107448107448
49,1.7591208791208792
50,1.775970695970696
51,1.7748473748473748
52,1.757997557997558
53,1.7591208791208792
54,1.7636141636141636
55,1.7782173382173383
56,1.7737240537240535
57,1.783833943833944
58,1.7815873015873016
59,1.7726007326007327
60,1.7815873015873016
61,1.775970695970696
62,1.7658608058608058
63,1.7535042735042734
64,1.7523809523809524
65,1.75013431013431
66,1.7692307692307692
67,1.7872039072039072
68,1.7782173382173383
69,1.7636141636141636
70,1.7815873015873016
71,1.7714774114774114
72,1.7658608058608058
73,1.7815873015873016
74,1.8164102564102564
75,1.8613431013431012
76,1.891672771672772
77,1.893919413919414
78,1.893919413919414
79,1.874822954822955
80,1.866959706959707
81,1.8366300366300363
82,1.7984371184371184
83,1.7883272283272282
84,1.7916971916971918
85,1.783833943833944
86,1.7602442002442005
87,1.7512576312576311
88,1.749010989010989
89,1.7613675213675213
90,1.7692307692307692
91,1.7827106227106226
92,1.7411477411477412
93,1.7624908424908423
94,1.9882783882783883
95,2.5263492063492063
96,3.2183150183150184
97,3.4946520146520146
98,3.495775335775336
99,3.281221001221001
100,2.5892551892551894
101,2.098363858363858
102,1.8175335775335772
103,1.6894749694749696
104,1.611965811965812
105,1.5917460317460317
106,1.5827594627594628
107,1.5355799755799755
108,1.522100122100122
109,1.5310866910866912
110,1.546813186813187
111,1.549059829059829
112,1.5569230769230769
113,1.567032967032967
114,1.5726495726495726
115,1.5591697191697191
116,1.547936507936508
117,1.5513064713064713
118,1.5524297924297925
119,1.5647863247863247
120,1.5602930402930404
121,1.574896214896215
122,1.592869352869353
123,1.5805128205128205
124,1.576019536019536
125,1.585006105006105
126,1.5917460317460317
127,1.6007326007326008
128,1.620952380952381
129,1.5951159951159952
130,1.5906227106227109
131,1.5894993894993894
132,1.573772893772894
133,1.5569230769230769
134,1.5726495726495726
135,1.6434188034188033
136,1.6816117216117217
137,1.6995848595848595
138,1.6973382173382174
139,1.6905982905982906
140,1.704078144078144
141,1.7276678876678877
142,1.738901098901099
143,1.7366544566544566
144,1.75013431013431
145,1.749010989010989
146,1.749010989010989
147,1.749010989010989
148,1.7265445665445665
149,1.7018315018315018
150,1.7007081807081808
151,1.693968253968254
152,1.675995115995116
153,1.6703785103785105
154,1.6726251526251523
155,1.6715018315018315
156,1.6737484737484738
157,1.667008547008547
158,1.6625152625152626
159,1.6456654456654456
160,1.638925518925519
161,1.638925518925519
162,1.6512820512820512
163,1.6546520146520147
164,1.6995848595848595
165,1.7141880341880342
166,1.6973382173382174
167,1.6827350427350427
168,1.6984615384615385
169,1.711941391941392
170,1.7175579975579975
171,1.710818070818071
172,1.704078144078144
173,1.7276678876678877
174,1.737777777777778
175,1.7624908424908423
176,1.756874236874237
177,1.7422710622710622
178,1.678241758241758
179,1.6276923076923078
180,1.638925518925519
181,1.6703785103785105
182,1.6995848595848595
183,1.7231746031746031
184,1.7332844932844933
185,1.74002442002442
186,1.757997557997558
187,1.74002442002442
188,1.7254212454212454
189,1.74002442002442
190,1.7433943833943837
191,1.7748473748473748
192,1.75013431013431
193,1.7445177045177045
194,1.8781929181929184
195,2.330891330891331
196,2.98017094017094
197,3.4924053724053725
198,3.496898656898657
199,3.185738705738706
200,2.571282051282051
201,2.096117216117216
202,1.832136752136752
203,1.7007081807081808
204,1.6445421245421246
205,1.6142124542124543
206,1.5962393162393165
207,1.5827594627594628
208,1.5838827838827838
209,1.586129426129426
210,1.5647863247863247
211,1.5434432234432234
212,1.5501831501831502
213,1.5771428571428572
214,1.5827594627594628
215,1.5996092796092796
216,1.592869352869353
217,1.6029792429792429
218,1.6108424908424908
219,1.6265689865689863
220,1.620952380952381
221,1.6220757020757022
222,1.613089133089133
223,1.615335775335775
224,1.611965811965812
225,1.6085958485958487
226,1.611965811965812
227,1.6378021978021975
228,1.6333089133089134
229,1.631062271062271
230,1.6434188034188033
231,1.6512820512820512
232,1.6524053724053724
233,1.647912087912088
234,1.6692551892551892
235,1.6748717948717948
236,1.683858363858364
237,1.6917216117216116
238,1.7063247863247863
239,1.72991452991453
240,1.72991452991453
241,1.7276678876678877
242,1.737777777777778
243,1.7366544566544566
244,1.722051282051282
245,1.7242979242979244
246,1.6917216117216116
247,1.6715018315018315
248,1.665885225885226
249,1.6546520146520147
250,1.6726251526251523
251,1.677118437118437
252,1.684981684981685
253,1.6602686202686203
254,1.6524053724053724
255,1.658021978021978
256,1.6557753357753358
257,1.6602686202686203
258,1.6715018315018315
259,1.665885225885226
260,1.6703785103785105
261,1.6715018315018315
262,1.683858363858364
263,1.6827350427350427
264,1.6827350427350427
265,1.6894749694749696
266,1.6748717948717948
267,1.686105006105006
268,1.6950915750915752
269,1.7074481074481074
270,1.7231746031746031
271,1.7276678876678877
272,1.713064713064713
273,1.704078144078144
274,1.7063247863247863
275,1.7007081807081808
276,1.7018315018315018
277,1.7074481074481074
278,1.7287912087912087
279,1.7478876678876678
280,1.7523809523809524
281,1.7546275946275949
282,1.75013431013431
283,1.757997557997558
284,1.7512576312576311
285,1.7512576312576311
286,1.7433943833943837
287,1.7411477411477412
288,1.7624908424908423
289,1.768107448107448
290,1.74002442002442
291,1.7344078144078143
292,1.738901098901099
293,1.737777777777778
294,1.7366544566544566
295,1.738901098901099
296,1.7456410256410255
297,1.7624908424908423
298,1.7456410256410255
299,1.7512576312576311
300,1.757997557997558
301,1.7602442002442005
302,1.7546275946275949
303,1.7658608058608058
304,1.7658608058608058
305,1.7591208791208792
306,1.756874236874237
307,1.756874236874237
308,1.7546275946275949
309,1.74002442002442
310,1.7591208791208792
311,1.757997557997558
312,1.7647374847374848
313,1.7591208791208792
314,1.75013431013431
315,1.757997557997558
316,1.7658608058608058
317,1.7624908424908423
318,1.7669841269841269
319,1.7658608058608058
320,1.7546275946275949
321,1.7613675213675213
322,1.775970695970696
323,1.7624908424908423
324,1.75013431013431
325,1.7613675213675213
326,1.7624908424908423
327,1.757997557997558
328,1.7535042735042734
329,1.7557509157509157
330,1.7669841269841269
331,1.7669841269841269
332,1.7669841269841269
333,1.7782173382173383
334,1.7602442002442005
335,1.7523809523809524
336,1.756874236874237
337,1.7602442002442005
338,1.756874236874237
339,1.7602442002442005
340,1.7647374847374848
341,1.7591208791208792
342,1.7602442002442005
343,1.7737240537240535
344,1.7815873015873016
345,1.784957264957265
346,1.768107448107448
347,1.7636141636141636
348,1.7512576312576311
349,1.7467643467643468
350,1.7669841269841269
351,1.7624908424908423
352,1.7748473748473748
353,1.811916971916972
354,1.848986568986569
355,1.895042735042735
356,1.914139194139194
357,1.922002442002442
358,1.8972893772893773
359,1.883809523809524
360,1.8725763125763129
361,1.8635897435897435
362,1.847863247863248
363,1.81978021978022
364,1.7928205128205128
365,1.7726007326007327
366,1.7478876678876678
367,1.7422710622710622
368,1.737777777777778
369,1.731037851037851
370,1.7523809523809524
371,1.72991452991453
372,1.7063247863247863
373,1.7883272283272282
374,2.155653235653236
375,2.776849816849817
376,3.3284004884004883
377,3.48004884004884
378,3.1778754578754578
379,2.6667643467643467
380,2.175873015873016
381,1.869206349206349
382,1.7321611721611725
383,1.665885225885226
384,1.6355555555555557
385,1.5984859584859583
386,1.5591697191697191
387,1.5501831501831502
388,1.5524297924297925
389,1.5333333333333334
390,1.5333333333333334
391,1.52996336996337
392,1.54007326007326
393,1.5355799755799755
394,1.5265934065934066
395,1.5333333333333334
396,1.5434432234432234
397,1.5378266178266178
398,1.5333333333333334
399,1.541196581196581
400,1.5310866910866912
401,1.5288400488400489
402,1.549059829059829
403,1.586129426129426
404,1.611965811965812
405,1.5827594627594628
406,1.5827594627594628
407,1.5793894993894997
408,1.5816361416361415
409,1.5883760683760684
410,1.5996092796092796
411,1.6018559218559218
412,1.5726495726495726
413,1.5501831501831502
414,1.585006105006105
415,1.6344322344322344
416,1.6636385836385836
417,1.6467887667887668
418,1.6535286935286937
419,1.6490354090354091
420,1.675995115995116
421,1.6872283272283273
422,1.684981684981685
423,1.713064713064713
424,1.7231746031746031
425,1.7276678876678877
426,1.7276678876678877
427,1.7467643467643468
428,1.75013431013431
429,1.7557509157509157
430,1.7512576312576311
431,1.738901098901099
432,1.7411477411477412
433,1.7344078144078143
434,1.7467643467643468
435,1.7467643467643468
436,1.7344078144078143
437,1.7141880341880342
438,1.7153113553113553
439,1.7231746031746031
440,1.7445177045177045
441,1.72991452991453
442,1.7164346764346765
443,1.722051282051282
444,1.74002442002442
445,1.7445177045177045
446,1.7321611721611725
447,1.731037851037851
448,1.7456410256410255
449,1.7175579975579975
450,1.7175579975579975
451,1.757997557997558
452,1.7669841269841269
453,1.7535042735042734
454,1.7512576312576311
455,1.7591208791208792
456,1.7714774114774114
457,1.7591208791208792
458,1.7535042735042734
459,1.7433943833943837
460,1.749010989010989
461,1.7602442002442005
462,1.7602442002442005
463,1.7613675213675213
464,1.7523809523809524
465,1.7433943833943837
466,1.7456410256410255
467,1.738901098901099
468,1.7344078144078143
469,1.7445177045177045
470,1.7512576312576311
471,1.7692307692307692
472,1.7928205128205128
473,1.7973137973137974
474,1.777094017094017
475,1.768107448107448
476,1.7647374847374848
477,1.7636141636141636
478,1.7602442002442005
479,1.7512576312576311
480,1.7591208791208792
481,1.757997557997558
482,1.7647374847374848
483,1.7636141636141636
484,1.7456410256410255
485,1.7422710622710622
486,1.737777777777778
487,1.7198046398046398
488,1.704078144078144
489,1.6984615384615385
490,1.6917216117216116
491,1.722051282051282
492,1.7445177045177045
493,1.7860805860805862
494,1.827643467643468
495,1.8355067155067155
496,1.8534798534798536
497,1.8377533577533576
498,1.841123321123321
499,1.8366300366300363
500,1.832136752136752
501,1.848986568986569
502,1.823150183150183
503,1.7973137973137974
504,1.775970695970696
505,1.7478876678876678
506,1.7242979242979244
507,1.7175579975579975
508,1.7242979242979244
509,1.7096947496947497
510,1.7141880341880342
511,1.7007081807081808
512,1.6962148962148962
513,1.6692551892551892
514,1.6647619047619049
515,1.84
516,2.3263980463980465
517,2.995897435897436
518,3.4047863247863246
519,3.308180708180708
520,2.8779487179487178
521,2.3387545787545787
522,1.9388522588522588
523,1.7175579975579975
524,1.6344322344322344
525,1.6063492063492064
526,1.576019536019536
527,1.5524297924297925
528,1.5535531135531135
529,1.5243467643467643
530,1.5277167277167276
531,1.5187301587301587
532,1.4996336996336996
533,1.5108669108669108
534,1.52996336996337
535,1.5423199023199023
536,1.5513064713064713
537,1.5614163614163614
538,1.5704029304029303
539,1.5894993894993894
540,1.585006105006105
541,1.592869352869353
542,1.5816361416361415
543,1.5771428571428572
544,1.5805128205128205
545,1.6018559218559218
546,1.61982905982906
547,1.6501587301587302
548,1.6647619047619049
549,1.667008547008547
550,1.6827350427350427
551,1.667008547008547
552,1.6692551892551892
553,1.6681318681318682
554,1.6636385836385836
555,1.6816117216117217
556,1.704078144078144
557,1.702954822954823
558,1.7153113553113553
559,1.72991452991453
560,1.7321611721611725
561,1.7355311355311356
562,1.7242979242979244
563,1.7366544566544566
564,1.756874236874237
565,1.7647374847374848
566,1.7714774114774114
567,1.7546275946275949
568,1.749010989010989
569,1.731037851037851
570,1.722051282051282
571,1.7198046398046398
572,1.7063247863247863
573,1.7141880341880342
574,1.7074481074481074
575,1.702954822954823
576,1.693968253968254
577,1.7063247863247863
578,1.704078144078144
579,1.7007081807081808
580,1.686105006105006
581,1.6872283272283273
582,1.6827350427350427
583,1.683858363858364
584,1.6883516483516483
585,1.6905982905982906
586,1.6950915750915752
587,1.693968253968254
588,1.6827350427350427
589,1.6827350427350427
590,1.6962148962148962
591,1.6905982905982906
592,1.683858363858364
593,1.693968253968254
594,1.7018315018315018
595,1.7096947496947497
596,1.713064713064713
597,1.7085714285714286
598,1.713064713064713
599,1.7141880341880342
600,1.711941391941392
601,1.7175579975579975
602,1.7265445665445665
603,1.7276678876678877
604,1.7523809523809524
605,1.7591208791208792
606,1.7557509157509157
607,1.7535042735042734
608,1.7737240537240535
609,1.775970695970696
610,1.7894505494505497
611,1.7916971916971918
612,1.7782173382173383
613,1.711941391941392
614,1.6535286935286937
615,1.6243223443223442
616,1.6445421245421246
617,1.6872283272283273
618,1.72991452991453
619,1.75013431013431
620,1.7445177045177045
621,1.7332844932844933
622,1.7355311355311356
623,1.7478876678876678
624,1.7321611721611725
625,1.7445177045177045
626,1.7636141636141636
627,1.7332844932844933
628,1.7287912087912087
629,1.827643467643468
630,2.1983394383394383
631,2.842002442002442
632,3.3362637362637364
633,3.3665934065934064
634,3.009377289377289
635,2.5768986568986567
636,2.1545299145299146
637,1.886056166056166
638,1.7478876678876678
639,1.6917216117216116
640,1.6726251526251523
641,1.6456654456654456
642,1.6355555555555557
643,1.61982905982906
644,1.61982905982906
645,1.6108424908424908
646,1.6074725274725274
647,1.6007326007326008
648,1.5984859584859583
649,1.6052258852258852
650,1.5906227106227109
651,1.5872527472527471
652,1.592869352869353
653,1.6097191697191695
654,1.6063492063492064
655,1.6243223443223442
656,1.6355555555555557
657,1.636678876678877
658,1.6231990231990232
659,1.6187057387057386
660,1.6097191697191695
661,1.611965811965812
662,1.6220757020757022
663,1.6231990231990232
664,1.6254456654456657
665,1.638925518925519
666,1.6445421245421246
667,1.6512820512820512
668,1.6535286935286937
669,1.6636385836385836
670,1.665885225885226
671,1.677118437118437
672,1.6872283272283273
673,1.710818070818071
674,1.7186813186813186
675,1.7096947496947497
676,1.7265445665445665
677,1.7332844932844933
678,1.7535042735042734
679,1.7636141636141636
680,1.7613675213675213
681,1.7445177045177045
682,1.7332844932844933
683,1.722051282051282
684,1.6995848595848595
685,1.6748717948717948
686,1.6602686202686203
687,1.6546520146520147
688,1.6434188034188033
689,1.6422954822954825
690,1.6557753357753358
691,1.6535286935286937
692,1.6243223443223442
693,1.6333089133089134
694,1.6434188034188033
695,1.658021978021978
696,1.6411721611721612
697,1.658021978021978
698,1.6625152625152626
699,1.6625152625152626
700,1.6535286935286937
701,1.6411721611721612
702,1.6535286935286937
703,1.6647619047619049
704,1.6692551892551892
705,1.6524053724053724
706,1.647912087912088
707,1.6647619047619049
708,1.6737484737484738
709,1.683858363858364
710,1.6827350427350427
711,1.6726251526251523
712,1.6681318681318682
713,1.686105006105006
714,1.677118437118437
715,1.686105006105006
716,1.7074481074481074
717,1.7007081807081808
718,1.683858363858364
719,1.704078144078144
720,1.705201465201465
721,1.7007081807081808
722,1.7231746031746031
723,1.713064713064713
724,1.710818070818071
725,1.7007081807081808
726,1.704078144078144
727,1.713064713064713
728,1.7231746031746031
729,1.722051282051282
730,1.7096947496947497
731,1.7287912087912087
732,1.7198046398046398
733,1.7175579975579975
734,1.7198046398046398
735,1.722051282051282
736,1.7355311355311356
737,1.7355311355311356
738,1.7287912087912087
739,1.711941391941392
740,1.722051282051282
741,1.7231746031746031
742,1.7186813186813186
743,1.7209279609279609
744,1.722051282051282
745,1.7287912087912087
746,1.7411477411477412
747,1.7411477411477412
748,1.7321611721611725
749,1.72991452991453
750,1.7344078144078143
751,1.731037851037851
752,1.7478876678876678
753,1.7332844932844933
754,1.7254212454212454
755,1.74002442002442
756,1.7647374847374848
757,1.7714774114774114
758,1.757997557997558
759,1.731037851037851
760,1.7355311355311356
761,1.7344078144078143
762,1.7512576312576311
763,1.7703540903540904
764,1.8018070818070815
765,1.842246642246642
766,1.8714529914529916
767,1.866959706959707
768,1.866959706959707
769,1.8534798534798536
770,1.8265201465201464
771,1.823150183150183
772,1.796190476190476
773,1.7714774114774114
774,1.7557509157509157
775,1.7512576312576311
776,1.7669841269841269
777,1.7726007326007327
778,1.7624908424908423
779,1.7714774114774114
780,1.7703540903540904
781,1.749010989010989
782,1.6962148962148962
783,1.686105006105006
784,1.8714529914529916
785,2.363467643467644
786,3.0273504273504277
787,3.4047863247863246
788,3.304810744810745
789,2.8262759462759464
790,2.376947496947497
791,1.9725518925518928
792,1.7546275946275949
793,1.686105006105006
794,1.6501587301587302
795,1.6276923076923078
796,1.6254456654456657
797,1.6276923076923078
798,1.615335775335775
799,1.593992673992674
800,1.6018559218559218
801,1.5782661782661782
802,1.5827594627594628
803,1.592869352869353
804,1.5872527472527471
805,1.574896214896215
806,1.5782661782661782
807,1.5984859584859583
808,1.604102564102564
809,1.6007326007326008
810,1.6074725274725274
811,1.61982905982906
812,1.6467887667887668
813,1.6613919413919414
814,1.6467887667887668
815,1.6625152625152626
816,1.659145299145299
817,1.6546520146520147
818,1.658021978021978
819,1.6625152625152626
820,1.659145299145299
821,1.6703785103785105
822,1.6703785103785105
823,1.6804884004884004
824,1.6905982905982906
825,1.6962148962148962
826,1.7074481074481074
827,1.7164346764346765
828,1.7186813186813186
829,1.7276678876678877
830,1.749010989010989
831,1.7602442002442005
832,1.7591208791208792
833,1.784957264957265
834,1.7894505494505497
835,1.796190476190476
836,1.7973137973137974
837,1.7905738705738703
838,1.7726007326007327
839,1.75013431013431
840,1.7433943833943837
841,1.7445177045177045
842,1.731037851037851
843,1.7254212454212454
844,1.7164346764346765
845,1.702954822954823
846,1.702954822954823
847,1.710818070818071
848,1.7209279609279609
849,1.7254212454212454
850,1.7186813186813186
851,1.7164346764346765
852,1.7198046398046398
853,1.7265445665445665
854,1.7411477411477412
855,1.737777777777778
856,1.7478876678876678
857,1.756874236874237
858,1.7523809523809524
859,1.7456410256410255
860,1.7478876678876678
861,1.7332844932844933
862,1.738901098901099
863,1.7535042735042734
864,1.7546275946275949
865,1.7591208791208792
866,1.7591208791208792
867,1.7726007326007327
868,1.7669841269841269
869,1.784957264957265
870,1.7815873015873016
871,1.777094017094017
872,1.783833943833944
873,1.784957264957265
874,1.783833943833944
875,1.7973137973137974
876,1.7703540903540904
877,1.7669841269841269
878,1.779340659340659
879,1.7860805860805862
880,1.7928205128205128
881,1.7916971916971918
882,1.7782173382173383
883,1.7883272283272282
884,1.795067155067155
885,1.7827106227106226
886,1.7860805860805862
887,1.7916971916971918
888,1.7804639804639804
889,1.7782173382173383
890,1.779340659340659
891,1.7782173382173383
892,1.804053724053724
893,1.82989010989011
894,1.8781929181929184
895,1.9017826617826616
896,1.911892551892552
897,1.911892551892552
898,1.9107692307692308
899,1.8905494505494504
900,1.869206349206349
901,1.842246642246642
902,1.8164102564102564
903,1.8051770451770448
904,1.802930402930403
905,1.7860805860805862
906,1.7782173382173383
907,1.7928205128205128
908,1.777094017094017
909,1.7714774114774114
910,1.7804639804639804
911,1.7714774114774114
912,1.7344078144078143
913,1.811916971916972
914,2.125323565323565
915,2.716190476190476
916,3.289084249084249
917,3.495775335775336
918,3.3003174603174603
919,2.806056166056166
920,2.266862026862027
921,1.9197557997558
922,1.7523809523809524
923,1.677118437118437
924,1.631062271062271
925,1.61982905982906
926,1.5984859584859583
927,1.5906227106227109
928,1.574896214896215
929,1.567032967032967
930,1.568156288156288
931,1.573772893772894
932,1.5793894993894997
933,1.5872527472527471
934,1.586129426129426
935,1.5838827838827838
936,1.5872527472527471
937,1.5827594627594628
938,1.585006105006105
939,1.5872527472527471
940,1.5827594627594628
941,1.5793894993894997
942,1.5838827838827838
943,1.6007326007326008
944,1.6007326007326008
945,1.6052258852258852
946,1.615335775335775
947,1.6142124542124543
948,1.61982905982906
949,1.615335775335775
950,1.632185592185592
951,1.64004884004884
952,1.6411721611721612
953,1.6378021978021975
954,1.6715018315018315
955,1.6793650793650794
956,1.677118437118437
957,1.6905982905982906
958,1.6950915750915752
959,1.7209279609279609
960,1.7344078144078143
961,1.7535042735042734
962,1.7692307692307692
963,1.7591208791208792
964,1.7332844932844933
965,1.7276678876678877
966,1.7332844932844933
967,1.711941391941392
968,1.6973382173382174
969,1.7007081807081808
970,1.6827350427350427
971,1.6804884004884004
972,1.6737484737484738
973,1.675995115995116
974,1.6681318681318682
975,1.6703785103785105
976,1.6625152625152626
977,1.6546520146520147
978,1.6681318681318682
979,1.6715018315018315
980,1.658021978021978
981,1.6726251526251523
982,1.6804884004884004
983,1.6883516483516483
984,1.683858363858364
985,1.6984615384615385
986,1.684981684981685
987,1.6872283272283273
988,1.6962148962148962
989,1.713064713064713
990,1.7063247863247863
991,1.6928449328449329
992,1.6928449328449329
993,1.6928449328449329
994,1.6984615384615385
995,1.7063247863247863
996,1.6950915750915752
997,1.6962148962148962
998,1.702954822954823
999,1.7153113553113553
1000,1.7164346764346765
1001,1.7085714285714286
1002,1.713064713064713
1003,1.710818070818071
1004,1.7141880341880342
1005,1.7141880341880342
1006,1.7074481074481074
1007,1.7254212454212454
1008,1.7231746031746031
1009,1.7321611721611725
1010,1.7276678876678877
1011,1.737777777777778
1012,1.737777777777778
1013,1.74002442002442
1014,1.72991452991453
1015,1.7523809523809524
1016,1.7445177045177045
1017,1.75013431013431
1018,1.7591208791208792
1019,1.7512576312576311
1020,1.710818070818071
1021,1.7164346764346765
1022,1.7344078144078143
1023,1.7321611721611725
1024,1.7467643467643468
1025,1.7939438339438338
1026,1.8366300366300363
1027,1.868083028083028
1028,1.8826862026862028
1029,1.8826862026862028
1030,1.8714529914529916
1031,1.8523565323565323
1032,1.842246642246642
1033,1.8063003663003665
1034,1.7748473748473748
1035,1.7591208791208792
1036,1.7467643467643468
1037,1.7433943833943837
1038,1.749010989010989
1039,1.7557509157509157
1040,1.7624908424908423
1041,1.7658608058608058
1042,1.7748473748473748
1043,1.7804639804639804
1044,1.74002442002442
1045,1.7546275946275949
1046,2.007374847374847
1047,2.5544322344322343
1048,3.1666422466422466
1049,3.4935286935286936
1050,3.332893772893773
1051,2.87008547008547
1052,2.307301587301587
1053,1.952332112332112
1054,1.768107448107448
1055,1.6715018315018315
1056,1.6018559218559218
1057,1.574896214896215
1058,1.5704029304029303
1059,1.5569230769230769
1060,1.5456898656898657
1061,1.5288400488400489
1062,1.5153601953601954
1063,1.5153601953601954
1064,1.5164835164835164
1065,1.5176068376068377
1066,1.5176068376068377
1067,1.5243467643467643
1068,1.5322100122100122
1069,1.538949938949939
1070,1.547936507936508
1071,1.5423199023199023
1072,1.549059829059829
1073,1.5513064713064713
1074,1.549059829059829
1075,1.5524297924297925
1076,1.558046398046398
1077,1.5636630036630037
1078,1.585006105006105
1079,1.592869352869353
1080,1.592869352869353
1081,1.5996092796092796
1082,1.615335775335775
1083,1.6299389499389498
1084,1.64004884004884
1085,1.6456654456654456
1086,1.6411721611721612
1087,1.6501587301587302
1088,1.656898656898657
1089,1.6647619047619049
1090,1.6827350427350427
1091,1.6973382173382174
1092,1.7198046398046398
1093,1.7422710622710622
1094,1.7737240537240535
1095,1.7815873015873016
1096,1.7714774114774114
1097,1.7658608058608058
1098,1.7523809523809524
1099,1.731037851037851
1100,1.7242979242979244
1101,1.7265445665445665
1102,1.7085714285714286
1103,1.6962148962148962
1104,1.6962148962148962
1105,1.6984615384615385
1106,1.693968253968254
1107,1.6962148962148962
1108,1.6793650793650794
1109,1.6715018315018315
1110,1.6827350427350427
1111,1.684981684981685
1112,1.6905982905982906
1113,1.7018315018315018
1114,1.7096947496947497
1115,1.7018315018315018
1116,1.6737484737484738
1117,1.675995115995116
1118,1.6827350427350427
1119,1.6737484737484738
1120,1.6905982905982906
1121,1.6827350427350427
1122,1.675995115995116
1123,1.6793650793650794
1124,1.684981684981685
1125,1.6894749694749696
1126,1.7063247863247863
1127,1.7063247863247863
1128,1.705201465201465
1129,1.6973382173382174
1130,1.675995115995116
1131,1.678241758241758
1132,1.6726251526251523
1133,1.684981684981685
1134,1.7063247863247863
1135,1.7007081807081808
1136,1.7063247863247863
1137,1.722051282051282
1138,1.722051282051282
1139,1.7096947496947497
1140,1.711941391941392
1141,1.7085714285714286
1142,1.7231746031746031
1143,1.7265445665445665
1144,1.722051282051282
1145,1.713064713064713
1146,1.7175579975579975
1147,1.7186813186813186
1148,1.7186813186813186
1149,1.7186813186813186
1150,1.7287912087912087
1151,1.7445177045177045
1152,1.7366544566544566
1153,1.7265445665445665
1154,1.7321611721611725
1155,1.722051282051282
1156,1.710818070818071
1157,1.7198046398046398
1158,1.7186813186813186
1159,1.7063247863247863
1160,1.7411477411477412
1161,1.779340659340659
1162,1.813040293040293
1163,1.8343833943833945
1164,1.8355067155067155
1165,1.8343833943833945
1166,1.822026862026862
1167,1.800683760683761
1168,1.7815873015873016
1169,1.768107448107448
1170,1.737777777777778
1171,1.7254212454212454
1172,1.731037851037851
1173,1.7186813186813186
1174,1.7198046398046398
1175,1.7276678876678877
1176,1.7209279609279609
1177,1.7242979242979244
1178,1.737777777777778
1179,1.6883516483516483
1180,1.6692551892551892
1181,1.8051770451770448
1182,2.2612454212454214
1183,2.899291819291819
1184,3.3272771672771677
1185,3.303687423687424
1186,2.9105250305250303
1187,2.4432234432234434
1188,2.0096214896214897
1189,1.7658608058608058
1190,1.6546520146520147
1191,1.6187057387057386
1192,1.5996092796092796
1193,1.573772893772894
1194,1.5614163614163614
1195,1.5501831501831502
1196,1.52996336996337
1197,1.5310866910866912
1198,1.5254700854700856
1199,1.5344566544566545
1200,1.5434432234432234
1201,1.5625396825396825
1202,1.5602930402930404
1203,1.5602930402930404
1204,1.5602930402930404
1205,1.5625396825396825
1206,1.5704029304029303
1207,1.5704029304029303
1208,1.586129426129426
1209,1.5906227106227109
1210,1.568156288156288
1211,1.5704029304029303
1212,1.593992673992674
1213,1.604102564102564
1214,1.613089133089133
1215,1.615335775335775
1216,1.6085958485958487
1217,1.6288156288156288
1218,1.6378021978021975
1219,1.6501587301587302
1220,1.6546520146520147
1221,1.6726251526251523
1222,1.6883516483516483
1223,1.704078144078144
1224,1.7265445665445665
1225,1.7321611721611725
1226,1.7411477411477412
1227,1.7546275946275949
1228,1.7714774114774114
1229,1.7916971916971918
1230,1.7995604395604397
1231,1.7995604395604397
1232,1.7804639804639804
1233,1.7636141636141636
1234,1.7467643467643468
1235,1.7287912087912087
1236,1.6917216117216116
1237,1.678241758241758
1238,1.6557753357753358
1239,1.6501587301587302
1240,1.6602686202686203
1241,1.6613919413919414
1242,1.64004884004884
1243,1.6422954822954825
1244,1.6602686202686203
1245,1.6748717948717948
1246,1.6827350427350427
1247,1.6905982905982906
1248,1.6804884004884004
1249,1.6681318681318682
1250,1.6681318681318682
1251,1.6872283272283273
1252,1.6973382173382174
1253,1.6917216117216116
1254,1.6984615384615385
1255,1.7007081807081808
1256,1.711941391941392
1257,1.713064713064713
1258,1.711941391941392
1259,1.7276678876678877
1260,1.7276678876678877
1261,1.7096947496947497
1262,1.7085714285714286
1263,1.713064713064713
1264,1.710818070818071
1265,1.705201465201465
1266,1.711941391941392
1267,1.711941391941392
1268,1.7186813186813186
1269,1.7063247863247863
1270,1.7198046398046398
1271,1.74002442002442
1272,1.7198046398046398
1273,1.6905982905982906
1274,1.6625152625152626
1275,1.6917216117216116
1276,1.749010989010989
1277,1.7804639804639804
1278,1.795067155067155
1279,1.811916971916972
1280,1.8164102564102564
1281,1.820903540903541
1282,1.8186568986568987
1283,1.8253968253968251
1284,1.820903540903541
1285,1.802930402930403
1286,1.7984371184371184
1287,1.7916971916971918
1288,1.7872039072039072
1289,1.7602442002442005
1290,1.7692307692307692
1291,1.7872039072039072
1292,1.795067155067155
1293,1.823150183150183
1294,1.857973137973138
1295,1.9017826617826616
1296,1.9534554334554333
1297,1.96019536019536
1298,1.955702075702076
1299,1.9343589743589744
1300,1.9242490842490845
1301,1.9096459096459095
1302,1.8826862026862028
1303,1.8568498168498169
1304,1.842246642246642
1305,1.832136752136752
1306,1.8467399267399267
1307,1.8355067155067155
1308,1.8355067155067155
1309,1.8242735042735043
1310,1.8164102564102564
1311,1.8388766788766788
1312,1.84
1313,1.7692307692307692
1314,1.7703540903540904
1315,1.9500854700854704
1316,2.4465934065934065
1317,3.0722832722832725
1318,3.4912820512820515
1319,3.4137728937728937
1320,2.9857875457875456
1321,2.478046398046398
1322,2.077020757020757
1323,1.847863247863248
1324,1.7287912087912087
1325,1.675995115995116
1326,1.6524053724053724
1327,1.6467887667887668
1328,1.6299389499389498
1329,1.6231990231990232
1330,1.6220757020757022
1331,1.5973626373626373
1332,1.5726495726495726
1333,1.5793894993894997
1334,1.6029792429792429
1335,1.5973626373626373
1336,1.593992673992674
1337,1.5951159951159952
1338,1.5996092796092796
1339,1.593992673992674
1340,1.604102564102564
1341,1.6074725274725274
1342,1.6063492063492064
1343,1.6074725274725274
1344,1.6063492063492064
1345,1.6243223443223442
1346,1.61982905982906
1347,1.6142124542124543
1348,1.6220757020757022
1349,1.632185592185592
1350,1.6422954822954825
1351,1.6557753357753358
1352,1.6613919413919414
1353,1.678241758241758
1354,1.6804884004884004
1355,1.6827350427350427
1356,1.6883516483516483
1357,1.6973382173382174
1358,1.7164346764346765
1359,1.7546275946275949
1360,1.7748473748473748
1361,1.7827106227106226
1362,1.802930402930403
1363,1.800683760683761
1364,1.7939438339438338
1365,1.775970695970696
1366,1.7456410256410255
1367,1.7714774114774114
1368,1.7872039072039072
1369,1.7860805860805862
1370,1.7714774114774114
1371,1.7456410256410255
1372,1.7198046398046398
1373,1.704078144078144
1374,1.7063247863247863
1375,1.7018315018315018
1376,1.6905982905982906
1377,1.6816117216117217
1378,1.6827350427350427
1379,1.677118437118437
1380,1.684981684981685
1381,1.6962148962148962
1382,1.677118437118437
1383,1.6827350427350427
1384,1.705201465201465
1385,1.7141880341880342
1386,1.711941391941392
1387,1.7175579975579975
1388,1.7085714285714286
1389,1.7074481074481074
1390,1.7018315018315018
1391,1.7085714285714286
1392,1.6950915750915752
1393,1.7007081807081808
1394,1.6917216117216116
1395,1.7186813186813186
1396,1.7186813186813186
1397,1.7074481074481074
1398,1.7085714285714286
1399,1.722051282051282
1400,1.7433943833943837
1401,1.737777777777778
1402,1.72991452991453
1403,1.737777777777778
1404,1.737777777777778
1405,1.7422710622710622
1406,1.7231746031746031
1407,1.7198046398046398
1408,1.72991452991453
1409,1.711941391941392
1410,1.6917216117216116
1411,1.702954822954823
1412,1.7007081807081808
1413,1.6917216117216116
1414,1.7209279609279609
1415,1.7748473748473748
1416,1.7726007326007327
1417,1.777094017094017
1418,1.8085470085470088
1419,1.8141636141636144
1420,1.8107936507936508
1421,1.8186568986568987
1422,1.8366300366300363
1423,1.8388766788766788
1424,1.8568498168498169
1425,1.842246642246642
1426,1.8355067155067155
1427,1.8613431013431012
1428,1.8534798534798536
1429,1.827643467643468
1430,1.8063003663003665
1431,1.7916971916971918
1432,1.7726007326007327
1433,1.74002442002442
1434,1.72991452991453
1435,1.7433943833943837
1436,1.775970695970696
1437,1.8141636141636144
1438,1.8332600732600728
1439,1.8265201465201464
1440,1.8096703296703296
1441,1.7636141636141636
1442,1.7366544566544566
1443,1.7321611721611725
1444,1.7242979242979244
1445,1.702954822954823
1446,1.704078144078144
1447,1.7546275946275949
1448,1.7782173382173383
1449,1.7726007326007327
1450,1.777094017094017
1451,1.7669841269841269
1452,1.7557509157509157
1453,1.768107448107448
1454,1.7984371184371184
1455,1.7703540903540904
1456,1.822026862026862
1457,2.09948717948718
1458,2.635311355311355
1459,3.175628815628816
1460,3.4137728937728937
1461,3.2014652014652016
1462,2.8363858363858365
1463,2.4106471306471304
1464,2.0747741147741148
1465,1.8736996336996337
1466,1.7905738705738703
1467,1.7209279609279609
1468,1.6715018315018315
1469,1.6288156288156288
1470,1.565909645909646
1471,1.5501831501831502
1472,1.5232234432234433
1473,1.5288400488400489
1474,1.5322100122100122
1475,1.5007570207570209
1476,1.483907203907204
1477,1.4872771672771672
1478,1.476043956043956
1479,1.4715506715506717
1480,1.4737973137973135
1481,1.472673992673993
1482,1.4580708180708182
1483,1.456947496947497
1484,1.483907203907204
1485,1.4962637362637363
1486,1.4928937728937728
1487,1.4771672771672772
1488,1.4827838827838828
1489,1.4973870573870574
1490,1.5131135531135531
1491,1.522100122100122
1492,1.522100122100122
1493,1.5333333333333334
1494,1.5378266178266178
1495,1.5367032967032968
1496,1.5524297924297925
1497,1.5614163614163614
1498,1.5692796092796093
1499,1.5827594627594628
1500,1.593992673992674
1501,1.6187057387057386
1502,1.6265689865689863
1503,1.631062271062271
1504,1.6613919413919414
1505,1.7209279609279609
1506,1.7467643467643468
1507,1.737777777777778
1508,1.7186813186813186
1509,1.6894749694749696
1510,1.677118437118437
1511,1.6883516483516483
1512,1.6703785103785105
1513,1.6546520146520147
1514,1.6288156288156288
1515,1.659145299145299
1516,1.6917216117216116
1517,1.678241758241758
1518,1.6804884004884004
1519,1.6804884004884004
1520,1.6816117216117217
1521,1.6557753357753358
1522,1.6456654456654456
1523,1.6726251526251523
1524,1.6917216117216116
1525,1.6950915750915752
1526,1.7153113553113553
1527,1.7456410256410255
1528,1.7422710622710622
1529,1.737777777777778
1530,1.7242979242979244
1531,1.713064713064713
1532,1.72991452991453
1533,1.7636141636141636
1534,1.8018070818070815
1535,1.81978021978022
1536,1.831013431013431
1537,1.8063003663003665
1538,1.7647374847374848
1539,1.7613675213675213
1540,1.7894505494505497
1541,1.8085470085470088
1542,1.855726495726496
1543,1.8883028083028084
1544,1.8972893772893773
1545,1.883809523809524
1546,1.874822954822955
1547,1.8624664224664225
1548,1.8635897435897435
1549,1.8714529914529916
1550,1.9107692307692308
1551,1.877069597069597
1552,1.8355067155067155
1553,1.9017826617826616
1554,2.243272283272283
1555,2.815042735042735
1556,3.2744810744810744
1557,3.31941391941392
1558,2.975677655677656
1559,2.5544322344322343
1560,2.165763125763126
1561,1.9197557997558
1562,1.7883272283272282
1563,1.731037851037851
1564,1.6973382173382174
1565,1.686105006105006
1566,1.6715018315018315
1567,1.6411721611721612
1568,1.6333089133089134
1569,1.620952380952381
1570,1.6220757020757022
1571,1.6231990231990232
1572,1.631062271062271
1573,1.6288156288156288
1574,1.6074725274725274
1575,1.6276923076923078
1576,1.6333089133089134
1577,1.6276923076923078
1578,1.61982905982906
1579,1.6344322344322344
1580,1.647912087912088
1581,1.6602686202686203
1582,1.6535286935286937
1583,1.6456654456654456
1584,1.6422954822954825
1585,1.6535286935286937
1586,1.665885225885226
1587,1.6692551892551892
1588,1.6748717948717948
1589,1.6793650793650794
1590,1.6894749694749696
1591,1.683858363858364
1592,1.693968253968254
1593,1.7287912087912087
1594,1.7332844932844933
1595,1.7231746031746031
1596,1.7366544566544566
1597,1.7535042735042734
1598,1.7827106227106226
1599,1.784957264957265
1600,1.777094017094017
1601,1.804053724053724
1602,1.8096703296703296
1603,1.7905738705738703
1604,1.7535042735042734
1605,1.7321611721611725
1606,1.6984615384615385
1607,1.686105006105006
1608,1.6715018315018315
1609,1.6467887667887668
1610,1.6681318681318682
1611,1.667008547008547
1612,1.6681318681318682
1613,1.6692551892551892
1614,1.7018315018315018
1615,1.7175579975579975
1616,1.6748717948717948
1617,1.677118437118437
1618,1.693968253968254
1619,1.6804884004884004
1620,1.659145299145299
1621,1.6715018315018315
1622,1.6737484737484738
1623,1.683858363858364
1624,1.6917216117216116
1625,1.6894749694749696
1626,1.7074481074481074
1627,1.7164346764346765
1628,1.7096947496947497
1629,1.711941391941392
1630,1.7209279609279609
1631,1.737777777777778
1632,1.7321611721611725
1633,1.711941391941392
1634,1.7063247863247863
1635,1.7018315018315018
1636,1.7411477411477412
1637,1.7737240537240535
1638,1.7602442002442005
1639,1.7478876678876678
1640,1.756874236874237
1641,1.775970695970696
1642,1.784957264957265
1643,1.7973137973137974
1644,1.7939438339438338
1645,1.795067155067155
1646,1.7827106227106226
1647,1.7827106227106226
1648,1.7591208791208792
1649,1.749010989010989
1650,1.7523809523809524
1651,1.777094017094017
1652,1.7726007326007327
1653,1.756874236874237
1654,1.768107448107448
1655,1.7231746031746031
1656,1.6995848595848595
1657,1.72991452991453
1658,1.7602442002442005
1659,1.768107448107448
1660,1.7546275946275949
1661,1.749010989010989
1662,1.7411477411477412
1663,1.7478876678876678
1664,1.7512576312576311
1665,1.7557509157509157
1666,1.7433943833943837
1667,1.704078144078144
1668,1.7467643467643468
1669,1.8074236874236875
1670,1.8063003663003665
1671,1.804053724053724
1672,1.7602442002442005
1673,1.738901098901099
1674,1.756874236874237
1675,1.7512576312576311
1676,1.7636141636141636
1677,1.777094017094017
1678,1.7804639804639804
1679,1.768107448107448
1680,1.7287912087912087
1681,1.705201465201465
1682,1.7085714285714286
1683,1.737777777777778
1684,1.7624908424908423
1685,1.7602442002442005
1686,1.777094017094017
1687,1.7894505494505497
1688,1.7726007326007327
1689,1.7523809523809524
1690,1.7535042735042734
1691,1.731037851037851
1692,1.7355311355311356
1693,1.7411477411477412
1694,1.7692307692307692
1695,1.779340659340659
1696,1.7703540903540904
1697,1.768107448107448
1698,1.7445177045177045
1699,1.7355311355311356
1700,1.74002442002442
1701,1.75013431013431
1702,1.7703540903540904
1703,1.7737240537240535
1704,1.756874236874237
1705,1.7512576312576311
1706,1.7827106227106226
1707,1.7804639804639804
1708,1.775970695970696
1709,1.784957264957265
1710,1.7692307692307692
1711,1.7647374847374848
1712,1.7714774114774114
1713,1.7703540903540904
1714,1.775970695970696
1715,1.7804639804639804
1716,1.795067155067155
1717,1.7726007326007327
1718,1.7647374847374848
1719,1.784957264957265
1720,1.7939438339438338
1721,1.7860805860805862
1722,1.7748473748473748
1723,1.7883272283272282
1724,1.7748473748473748
1725,1.7433943833943837
1726,1.7287912087912087
1727,1.7433943833943837
1728,1.768107448107448
1729,1.7737240537240535
1730,1.7456410256410255
1731,1.7557509157509157
1732,1.74002442002442
1733,1.7422710622710622
1734,1.7714774114774114
1735,1.8332600732600728
1736,1.8883028083028084
1737,1.9107692307692308
1738,1.9073992673992677
1739,1.8849328449328449
1740,1.8624664224664225
1741,1.855726495726496
1742,1.8265201465201464
1743,1.7916971916971918
1744,1.777094017094017
1745,1.7692307692307692
1746,1.7703540903540904
1747,1.7669841269841269
1748,1.7647374847374848
1749,1.749010989010989
1750,1.7478876678876678
1751,1.775970695970696
1752,1.7445177045177045
1753,1.7332844932844933
1754,1.8658363858363856
1755,2.2601221001221
1756,2.8813186813186813
1757,3.450842490842491
1758,3.496898656898657
1759,3.4283760683760685
1760,2.855482295482296
1761,2.2354090354090355
1762,1.8781929181929184
1763,1.6737484737484738
1764,1.6052258852258852
1765,1.5647863247863247
1766,1.5344566544566545
1767,1.5041269841269842
1768,1.4928937728937728
1769,1.474920634920635
1770,1.4591941391941392
1771,1.4547008547008546
1772,1.456947496947497
1773,1.4524542124542124
1774,1.44009768009768
1775,1.4659340659340658
1776,1.4782905982905985
1777,1.4704273504273504
1778,1.4636874236874238
1779,1.4794139194139193
1780,1.501880341880342
1781,1.503003663003663
1782,1.4861538461538462
1783,1.4850305250305251
1784,1.5176068376068377
1785,1.5456898656898657
1786,1.5602930402930404
1787,1.5513064713064713
1788,1.538949938949939
1789,1.541196581196581
1790,1.547936507936508
1791,1.5513064713064713
1792,1.5513064713064713
1793,1.5434432234432234
1794,1.549059829059829
1795,1.5524297924297925
1796,1.5636630036630037
1797,1.576019536019536
1798,1.576019536019536
1799,1.5602930402930404
1800,1.568156288156288
1801,1.5951159951159952
1802,1.5962393162393165
1803,1.61982905982906
1804,1.6333089133089134
1805,1.656898656898657
1806,1.704078144078144
1807,1.713064713064713
1808,1.7074481074481074
1809,1.7231746031746031
1810,1.738901098901099
1811,1.731037851037851
1812,1.710818070818071
1813,1.713064713064713
1814,1.7085714285714286
1815,1.7355311355311356
1816,1.7478876678876678
1817,1.7366544566544566
1818,1.7085714285714286
1819,1.6636385836385836
1820,1.6220757020757022
1821,1.6254456654456657
1822,1.6625152625152626
1823,1.6950915750915752
1824,1.7096947496947497
1825,1.7198046398046398
1826,1.711941391941392
1827,1.7186813186813186
1828,1.7287912087912087
1829,1.713064713064713
1830,1.7141880341880342
1831,1.7175579975579975
1832,1.710818070818071
1833,1.7007081807081808
1834,1.7141880341880342
1835,1.72991452991453
1836,1.731037851037851
1837,1.7096947496947497
1838,1.665885225885226
1839,1.6681318681318682
1840,1.7546275946275949
1841,1.947838827838828
1842,1.9444688644688648
1843,1.6962148962148962
1844,1.4547008547008546
1845,1.239023199023199
1846,1.0795115995115996
1847,0.9615628815628816
1848,0.9076434676434676
1849,0.8716971916971917
1850,0.8952869352869353
1851,1.076141636141636
1852,1.3097924297924295
1853,1.6175824175824176
1854,1.800683760683761
1855,1.8635897435897435
1856,1.8927960927960927
1857,1.9017826617826616
1858,1.9366056166056167
1859,1.9613186813186811
1860,1.9703052503052505
1861,1.9815384615384612
1862,1.9983882783882785
1863,2.0006349206349205
1864,2.0152380952380957
1865,2.006251526251526
1866,2.0174847374847373
1867,2.0365811965811966
1868,2.034334554334554
1869,2.0421978021978022
1870,2.061294261294261
1871,2.059047619047619
1872,2.0747741147741148
1873,2.1185836385836385
1874,2.1702564102564104
1875,2.209572649572649
1876,2.22979242979243
1877,2.266862026862027
1878,2.2893284493284494
1879,2.3095482295482297
1880,2.346617826617827
1881,2.3735775335775338
1882,2.4196336996337
1883,2.46007326007326
1884,2.473553113553113
1885,2.4465934065934065
1886,2.4185103785103785
1887,2.3702075702075702
1888,2.321904761904762
1889,2.258998778998779
1890,2.151159951159951
1891,2.0455677655677658
1892,1.9747985347985348
1893,1.9017826617826616
1894,1.8265201465201464
1895,1.7815873015873016
1896,1.7355311355311356
1897,1.6995848595848595
1898,1.6647619047619049
1899,1.6524053724053724
1900,1.638925518925519
1901,1.638925518925519
1902,1.647912087912088
1903,1.6344322344322344
1904,1.631062271062271
1905,1.6164590964590964
1906,1.615335775335775
1907,1.61982905982906
1908,1.6097191697191695
1909,1.6007326007326008
1910,1.586129426129426
1911,1.5805128205128205
1912,1.6108424908424908
1913,1.6187057387057386
1914,1.6265689865689863
1915,1.6378021978021975
1916,1.638925518925519
1917,1.6243223443223442
1918,1.6243223443223442
1919,1.6355555555555557
1920,1.6254456654456657
1921,1.631062271062271
1922,1.6344322344322344
1923,1.631062271062271
1924,1.6254456654456657
1925,1.6288156288156288
1926,1.632185592185592
1927,1.6333089133089134
1928,1.6524053724053724
1929,1.659145299145299
1930,1.6467887667887668
1931,1.6602686202686203
1932,1.6681318681318682
1933,1.665885225885226
1934,1.667008547008547
1935,1.675995115995116
1936,1.6737484737484738
1937,1.665885225885226
1938,1.675995115995116
1939,1.6905982905982906
1940,1.6917216117216116
1941,1.6917216117216116
1942,1.704078144078144
1943,1.6984615384615385
1944,1.6973382173382174
1945,1.7085714285714286
1946,1.711941391941392
1947,1.7018315018315018
1948,1.6872283272283273
1949,1.6793650793650794
1950,1.6995848595848595
1951,1.6995848595848595
1952,1.6816117216117217
1953,1.6872283272283273
1954,1.677118437118437
1955,1.6715018315018315
1956,1.6692551892551892
1957,1.6804884004884004
1958,1.704078144078144
1959,1.6962148962148962
1960,1.713064713064713
1961,1.7175579975579975
1962,1.713064713064713
1963,1.710818070818071
1964,1.704078144078144
1965,1.7063247863247863
1966,1.7186813186813186
1967,1.7198046398046398
1968,1.7175579975579975
1969,1.7231746031746031
1970,1.722051282051282
1971,1.7287912087912087
1972,1.7344078144078143
1973,1.7198046398046398
1974,1.7287912087912087
1975,1.722051282051282
1976,1.7018315018315018
1977,1.7085714285714286
1978,1.7186813186813186
1979,1.704078144078144
1980,1.72991452991453
1981,1.738901098901099
1982,1.7478876678876678
1983,1.7344078144078143
1984,1.7546275946275949
1985,1.7456410256410255
1986,1.7175579975579975
1987,1.7344078144078143
1988,1.74002442002442
1989,1.7535042735042734
1990,1.7624908424908423
1991,1.7535042735042734
1992,1.7478876678876678
1993,1.74002442002442
1994,1.7321611721611725
1995,1.738901098901099
1996,1.7456410256410255
1997,1.7332844932844933
1998,1.7411477411477412
1999,1.7456410256410255
