Index,II
0,1.7669841269841269
1,1.7726007326007327
2,1.775970695970696
3,1.7995604395604397
4,1.8253968253968251
5,1.8546031746031744
6,1.857973137973138
7,1.847863247863248
8,1.8343833943833945
9,1.81978021978022
10,1.8018070818070815
11,1.783833943833944
12,1.7894505494505497
13,1.7624908424908423
14,1.7591208791208792
15,1.738901098901099
16,1.731037851037851
17,1.731037851037851
18,1.7512576312576311
19,1.7467643467643468
20,1.7467643467643468
21,1.7523809523809524
22,1.7478876678876678
23,1.7411477411477412
24,1.7366544566544566
25,1.7332844932844933
26,1.6995848595848595
27,1.6793650793650794
28,1.7198046398046398
29,1.7546275946275949
30,1.7872039072039072
31,1.775970695970696
32,1.7703540903540904
33,1.7467643467643468
34,1.737777777777778
35,1.7344078144078143
36,1.7276678876678877
37,1.711941391941392
38,1.749010989010989
39,1.7692307692307692
40,1.7714774114774114
41,1.7726007326007327
42,1.7939438339438338
43,1.7883272283272282
44,1.7905738705738703
45,1.7905738705738703
46,1.7591208791208792
47,1.7433943833943837
48,1.7512576312576311
49,1.7782173382173383
50,1.7714774114774114
51,1.779340659340659
52,1.7939438339438338
53,1.777094017094017
54,1.7827106227106226
55,1.7692307692307692
56,1.7602442002442005
57,1.7456410256410255
58,1.7523809523809524
59,1.738901098901099
60,1.7456410256410255
61,1.7355311355311356
62,1.7647374847374848
63,1.804053724053724
64,1.84
65,1.8736996336996337
66,1.8781929181929184
67,1.8568498168498169
68,1.8377533577533576
69,1.8186568986568987
70,1.7894505494505497
71,1.7726007326007327
72,1.756874236874237
73,1.7366544566544566
74,1.7074481074481074
75,1.710818070818071
76,1.7209279609279609
77,1.7231746031746031
78,1.7096947496947497
79,1.7254212454212454
80,1.731037851037851
81,1.6973382173382174
82,1.7445177045177045
83,2.0017582417582416
84,2.5768986568986567
85,3.243028083028083
86,3.495775335775336
87,3.495775335775336
88,3.1385592185592186
89,2.4544566544566546
90,1.977045177045177
91,1.7411477411477412
92,1.6108424908424908
93,1.565909645909646
94,1.54007326007326
95,1.5232234432234433
96,1.5434432234432234
97,1.541196581196581
98,1.5097435897435898
99,1.4850305250305251
100,1.4704273504273504
101,1.4794139194139193
102,1.4861538461538462
103,1.4715506715506717
104,1.4693040293040294
105,1.4996336996336996
106,1.5063736263736265
107,1.5041269841269842
108,1.501880341880342
109,1.541196581196581
110,1.5647863247863247
111,1.5805128205128205
112,1.5906227106227109
113,1.5883760683760684
114,1.5726495726495726
115,1.5782661782661782
116,1.574896214896215
117,1.5715262515262516
118,1.5805128205128205
119,1.586129426129426
120,1.593992673992674
121,1.6108424908424908
122,1.61982905982906
123,1.638925518925519
124,1.632185592185592
125,1.632185592185592
126,1.6434188034188033
127,1.6625152625152626
128,1.684981684981685
129,1.6827350427350427
130,1.6827350427350427
131,1.6827350427350427
132,1.6703785103785105
133,1.6737484737484738
134,1.6793650793650794
135,1.6625152625152626
136,1.6625152625152626
137,1.659145299145299
138,1.6625152625152626
139,1.665885225885226
140,1.6793650793650794
141,1.6905982905982906
142,1.7074481074481074
143,1.6973382173382174
144,1.6804884004884004
145,1.683858363858364
146,1.6905982905982906
147,1.686105006105006
148,1.6748717948717948
149,1.6748717948717948
150,1.677118437118437
151,1.6894749694749696
152,1.667008547008547
153,1.6557753357753358
154,1.656898656898657
155,1.6557753357753358
156,1.64004884004884
157,1.6546520146520147
158,1.686105006105006
159,1.6816117216117217
160,1.6883516483516483
161,1.6962148962148962
162,1.677118437118437
163,1.678241758241758
164,1.6962148962148962
165,1.7254212454212454
166,1.722051282051282
167,1.704078144078144
168,1.7096947496947497
169,1.731037851037851
170,1.72991452991453
171,1.7141880341880342
172,1.704078144078144
173,1.7085714285714286
174,1.7209279609279609
175,1.731037851037851
176,1.7344078144078143
177,1.7422710622710622
178,1.737777777777778
179,1.737777777777778
180,1.7366544566544566
181,1.72991452991453
182,1.7186813186813186
183,1.704078144078144
184,1.7175579975579975
185,1.7153113553113553
186,1.704078144078144
187,1.6984615384615385
188,1.7007081807081808
189,1.7096947496947497
190,1.6995848595848595
191,1.6894749694749696
192,1.6883516483516483
193,1.74002442002442
194,1.7916971916971918
195,1.8253968253968251
196,1.84
197,1.8590964590964592
198,1.8456166056166057
199,1.847863247863248
200,1.8590964590964592
201,1.8343833943833945
202,1.8141636141636144
203,1.784957264957265
204,1.7748473748473748
205,1.757997557997558
206,1.7433943833943837
207,1.7422710622710622
208,1.7602442002442005
209,1.749010989010989
210,1.7456410256410255
211,1.7692307692307692
212,1.768107448107448
213,1.7422710622710622
214,1.7815873015873016
215,2.0747741147741148
216,2.647667887667888
217,3.236288156288156
218,3.495775335775336
219,3.3272771672771677
220,2.804932844932845
221,2.2455189255189256
222,1.8961660561660565
223,1.7242979242979244
224,1.6378021978021975
225,1.5962393162393165
226,1.5692796092796093
227,1.5647863247863247
228,1.522100122100122
229,1.5063736263736265
230,1.476043956043956
231,1.472673992673993
232,1.503003663003663
233,1.5647863247863247
234,1.604102564102564
235,1.5973626373626373
236,1.5771428571428572
237,1.5692796092796093
238,1.585006105006105
239,1.5894993894993894
240,1.5805128205128205
241,1.5805128205128205
242,1.5827594627594628
243,1.5827594627594628
244,1.611965811965812
245,1.6231990231990232
246,1.6220757020757022
247,1.604102564102564
248,1.6108424908424908
249,1.5984859584859583
250,1.5894993894993894
251,1.5894993894993894
252,1.6052258852258852
253,1.6074725274725274
254,1.6355555555555557
255,1.6512820512820512
256,1.61982905982906
257,1.6243223443223442
258,1.6546520146520147
259,1.6950915750915752
260,1.731037851037851
261,1.7883272283272282
262,1.811916971916972
263,1.7905738705738703
264,1.7366544566544566
265,1.7007081807081808
266,1.7287912087912087
267,1.7287912087912087
268,1.7265445665445665
269,1.7231746031746031
270,1.7175579975579975
271,1.7063247863247863
272,1.710818070818071
273,1.667008547008547
274,1.6276923076923078
275,1.611965811965812
276,1.6434188034188033
277,1.6917216117216116
278,1.702954822954823
279,1.6995848595848595
280,1.6973382173382174
281,1.683858363858364
282,1.684981684981685
283,1.7007081807081808
284,1.7074481074481074
285,1.7186813186813186
286,1.7344078144078143
287,1.7332844932844933
288,1.7242979242979244
289,1.710818070818071
290,1.6973382173382174
291,1.6726251526251523
292,1.6681318681318682
293,1.7018315018315018
294,1.7276678876678877
295,1.7186813186813186
296,1.7198046398046398
297,1.7276678876678877
298,1.722051282051282
299,1.7276678876678877
300,1.7355311355311356
301,1.737777777777778
302,1.7175579975579975
303,1.6872283272283273
304,1.677118437118437
305,1.6995848595848595
306,1.731037851037851
307,1.7647374847374848
308,1.7636141636141636
309,1.7523809523809524
310,1.7647374847374848
311,1.7669841269841269
312,1.7591208791208792
313,1.7512576312576311
314,1.756874236874237
315,1.7602442002442005
316,1.7411477411477412
317,1.7231746031746031
318,1.7591208791208792
319,1.7703540903540904
320,1.737777777777778
321,1.7085714285714286
322,1.756874236874237
323,1.7860805860805862
324,1.8051770451770448
325,1.8018070818070815
326,1.800683760683761
327,1.8074236874236875
328,1.8096703296703296
329,1.8141636141636144
330,1.7984371184371184
331,1.7827106227106226
332,1.7860805860805862
333,1.7669841269841269
334,1.72991452991453
335,1.7355311355311356
336,1.7433943833943837
337,1.7355311355311356
338,1.7198046398046398
339,1.7366544566544566
340,1.7703540903540904
341,1.8388766788766788
342,1.9107692307692308
343,1.9332356532356527
344,1.9298656898656896
345,1.883809523809524
346,1.8343833943833945
347,1.857973137973138
348,1.8703296703296703
349,1.848986568986569
350,1.802930402930403
351,1.783833943833944
352,1.779340659340659
353,1.7714774114774114
354,1.7018315018315018
355,1.6872283272283273
356,1.7523809523809524
357,1.8107936507936508
358,1.842246642246642
359,1.813040293040293
360,1.820903540903541
361,2.0141147741147742
362,2.464566544566545
363,3.017240537240537
364,3.3003174603174603
365,3.13968253968254
366,2.7577533577533577
367,2.287081807081807
368,1.9253724053724053
369,1.7355311355311356
370,1.6647619047619049
371,1.6220757020757022
372,1.5984859584859583
373,1.6052258852258852
374,1.6276923076923078
375,1.613089133089133
376,1.61982905982906
377,1.6108424908424908
378,1.6029792429792429
379,1.604102564102564
380,1.6018559218559218
381,1.6243223443223442
382,1.6142124542124543
383,1.61982905982906
384,1.6018559218559218
385,1.576019536019536
386,1.5704029304029303
387,1.5715262515262516
388,1.5625396825396825
389,1.5647863247863247
390,1.574896214896215
391,1.5715262515262516
392,1.558046398046398
393,1.5793894993894997
394,1.5917460317460317
395,1.5838827838827838
396,1.5838827838827838
397,1.5636630036630037
398,1.5591697191697191
399,1.61982905982906
400,1.6917216117216116
401,1.710818070818071
402,1.6950915750915752
403,1.693968253968254
404,1.6905982905982906
405,1.705201465201465
406,1.7164346764346765
407,1.7366544566544566
408,1.731037851037851
409,1.710818070818071
410,1.7276678876678877
411,1.7467643467643468
412,1.7321611721611725
413,1.7141880341880342
414,1.6928449328449329
415,1.6804884004884004
416,1.6411721611721612
417,1.604102564102564
418,1.6467887667887668
419,1.711941391941392
420,1.7231746031746031
421,1.7287912087912087
422,1.7422710622710622
423,1.7209279609279609
424,1.7175579975579975
425,1.7018315018315018
426,1.711941391941392
427,1.7186813186813186
428,1.7198046398046398
429,1.7175579975579975
430,1.7007081807081808
431,1.6984615384615385
432,1.6917216117216116
433,1.6917216117216116
434,1.647912087912088
435,1.6378021978021975
436,1.675995115995116
437,1.6726251526251523
438,1.6647619047619049
439,1.7018315018315018
440,1.7254212454212454
441,1.7546275946275949
442,1.7939438339438338
443,1.7714774114774114
444,1.7456410256410255
445,1.7186813186813186
446,1.7344078144078143
447,1.7456410256410255
448,1.7164346764346765
449,1.7175579975579975
450,1.7265445665445665
451,1.7456410256410255
452,1.7422710622710622
453,1.7703540903540904
454,1.779340659340659
455,1.7478876678876678
456,1.7231746031746031
457,1.6816117216117217
458,1.677118437118437
459,1.722051282051282
460,1.7804639804639804
461,1.811916971916972
462,1.8096703296703296
463,1.7815873015873016
464,1.7523809523809524
465,1.731037851037851
466,1.6905982905982906
467,1.704078144078144
468,1.7624908424908423
469,1.795067155067155
470,1.8018070818070815
471,1.802930402930403
472,1.7782173382173383
473,1.7703540903540904
474,1.7523809523809524
475,1.7411477411477412
476,1.6984615384615385
477,1.6816117216117217
478,1.6950915750915752
479,1.7265445665445665
480,1.7647374847374848
481,1.7939438339438338
482,1.7984371184371184
483,1.777094017094017
484,1.7782173382173383
485,1.7995604395604397
486,1.8253968253968251
487,1.841123321123321
488,1.86021978021978
489,1.8433699633699636
490,1.8287667887667889
491,1.8175335775335772
492,1.811916971916972
493,1.8051770451770448
494,1.7995604395604397
495,1.777094017094017
496,1.7546275946275949
497,1.7175579975579975
498,1.7209279609279609
499,1.7287912087912087
500,1.7231746031746031
501,1.7366544566544566
502,1.7186813186813186
503,1.6333089133089134
504,1.6422954822954825
505,1.9264957264957263
506,2.557802197802198
507,3.129572649572649
508,3.2935775335775337
509,3.0105006105006105
510,2.5926251526251525
511,2.183736263736264
512,1.869206349206349
513,1.6546520146520147
514,1.576019536019536
515,1.5344566544566545
516,1.5434432234432234
517,1.6175824175824176
518,1.6501587301587302
519,1.6344322344322344
520,1.613089133089133
521,1.574896214896215
522,1.5557997557997558
523,1.565909645909646
524,1.565909645909646
525,1.5838827838827838
526,1.6355555555555557
527,1.658021978021978
528,1.6411721611721612
529,1.6254456654456657
530,1.6344322344322344
531,1.6265689865689863
532,1.6276923076923078
533,1.6265689865689863
534,1.638925518925519
535,1.6276923076923078
536,1.6018559218559218
537,1.5726495726495726
538,1.5636630036630037
539,1.567032967032967
540,1.574896214896215
541,1.6007326007326008
542,1.6333089133089134
543,1.6625152625152626
544,1.6962148962148962
545,1.7231746031746031
546,1.7344078144078143
547,1.737777777777778
548,1.7467643467643468
549,1.7692307692307692
550,1.802930402930403
551,1.8018070818070815
552,1.800683760683761
553,1.7804639804639804
554,1.7737240537240535
555,1.7815873015873016
556,1.775970695970696
557,1.7984371184371184
558,1.8624664224664225
559,1.842246642246642
560,1.7703540903540904
561,1.6905982905982906
562,1.6265689865689863
563,1.6613919413919414
564,1.7883272283272282
565,1.8781929181929184
566,1.9085225885225885
567,1.869206349206349
568,1.7872039072039072
569,1.7445177045177045
570,1.757997557997558
571,1.7613675213675213
572,1.795067155067155
573,1.8332600732600728
574,1.832136752136752
575,1.813040293040293
576,1.8085470085470088
577,1.7905738705738703
578,1.7883272283272282
579,1.7827106227106226
580,1.7523809523809524
581,1.731037851037851
582,1.722051282051282
583,1.713064713064713
584,1.7153113553113553
585,1.704078144078144
586,1.713064713064713
587,1.7287912087912087
588,1.7411477411477412
589,1.7456410256410255
590,1.7355311355311356
591,1.7467643467643468
592,1.7703540903540904
593,1.7973137973137974
594,1.827643467643468
595,1.842246642246642
596,1.81978021978022
597,1.7815873015873016
598,1.75013431013431
599,1.7433943833943837
600,1.775970695970696
601,1.7984371184371184
602,1.7973137973137974
603,1.784957264957265
604,1.7692307692307692
605,1.7557509157509157
606,1.7467643467643468
607,1.7209279609279609
608,1.7007081807081808
609,1.6973382173382174
610,1.6950915750915752
611,1.7198046398046398
612,1.7231746031746031
613,1.7096947496947497
614,1.678241758241758
615,1.6973382173382174
616,1.6950915750915752
617,1.677118437118437
618,1.6636385836385836
619,1.6557753357753358
620,1.678241758241758
621,1.678241758241758
622,1.6905982905982906
623,1.7658608058608058
624,1.81978021978022
625,1.8568498168498169
626,1.8590964590964592
627,1.857973137973138
628,1.8883028083028084
629,1.8624664224664225
630,1.8287667887667889
631,1.757997557997558
632,1.6962148962148962
633,1.7186813186813186
634,1.756874236874237
635,1.7916971916971918
636,1.8096703296703296
637,1.8074236874236875
638,1.8096703296703296
639,1.8152869352869352
640,1.804053724053724
641,1.7860805860805862
642,1.7321611721611725
643,1.7254212454212454
644,1.866959706959707
645,2.3095482295482297
646,2.928498168498169
647,3.354236874236874
648,3.308180708180708
649,2.858852258852259
650,2.387057387057387
651,2.0523076923076924
652,1.831013431013431
653,1.6748717948717948
654,1.6007326007326008
655,1.5614163614163614
656,1.5524297924297925
657,1.585006105006105
658,1.5996092796092796
659,1.5894993894993894
660,1.6063492063492064
661,1.6108424908424908
662,1.5906227106227109
663,1.5546764346764346
664,1.5187301587301587
665,1.5535531135531135
666,1.592869352869353
667,1.6074725274725274
668,1.593992673992674
669,1.5917460317460317
670,1.5996092796092796
671,1.6007326007326008
672,1.5838827838827838
673,1.5636630036630037
674,1.549059829059829
675,1.5367032967032968
676,1.5277167277167276
677,1.558046398046398
678,1.6029792429792429
679,1.6535286935286937
680,1.6748717948717948
681,1.6692551892551892
682,1.659145299145299
683,1.6613919413919414
684,1.6917216117216116
685,1.693968253968254
686,1.7231746031746031
687,1.7141880341880342
688,1.7164346764346765
689,1.667008547008547
690,1.6074725274725274
691,1.5996092796092796
692,1.6872283272283273
693,1.7815873015873016
694,1.783833943833944
695,1.7916971916971918
696,1.7658608058608058
697,1.7636141636141636
698,1.757997557997558
699,1.7422710622710622
700,1.7074481074481074
701,1.6748717948717948
702,1.6501587301587302
703,1.6378021978021975
704,1.632185592185592
705,1.6063492063492064
706,1.6007326007326008
707,1.6085958485958487
708,1.6344322344322344
709,1.6625152625152626
710,1.6962148962148962
711,1.704078144078144
712,1.693968253968254
713,1.6625152625152626
714,1.6288156288156288
715,1.6164590964590964
716,1.6187057387057386
717,1.6434188034188033
718,1.6703785103785105
719,1.6299389499389498
720,1.5771428571428572
721,1.6220757020757022
722,1.6905982905982906
723,1.7366544566544566
724,1.7557509157509157
725,1.7456410256410255
726,1.722051282051282
727,1.702954822954823
728,1.6984615384615385
729,1.693968253968254
730,1.7231746031746031
731,1.7265445665445665
732,1.7096947496947497
733,1.6883516483516483
734,1.638925518925519
735,1.6333089133089134
736,1.7231746031746031
737,1.777094017094017
738,1.7714774114774114
739,1.756874236874237
740,1.7591208791208792
741,1.7366544566544566
742,1.7141880341880342
743,1.704078144078144
744,1.7007081807081808
745,1.7096947496947497
746,1.7096947496947497
747,1.7153113553113553
748,1.7726007326007327
749,1.832136752136752
750,1.832136752136752
751,1.8164102564102564
752,1.7872039072039072
753,1.7726007326007327
754,1.7973137973137974
755,1.8063003663003665
756,1.7860805860805862
757,1.7512576312576311
758,1.659145299145299
759,1.5771428571428572
760,1.6355555555555557
761,1.7804639804639804
762,1.8590964590964592
763,1.8590964590964592
764,1.85010989010989
765,1.8377533577533576
766,1.874822954822955
767,1.9073992673992677
768,1.9242490842490845
769,1.9231257631257632
770,1.8894261294261292
771,1.8074236874236875
772,1.7692307692307692
773,1.7782173382173383
774,1.7872039072039072
775,1.775970695970696
776,1.7321611721611725
777,1.6883516483516483
778,1.647912087912088
779,1.6029792429792429
780,1.684981684981685
781,1.7523809523809524
782,1.7456410256410255
783,1.7085714285714286
784,1.6917216117216116
785,1.8085470085470088
786,2.23990231990232
787,2.830769230769231
788,3.195848595848596
789,3.132942612942613
790,2.8105494505494506
791,2.423003663003663
792,2.021978021978022
793,1.7153113553113553
794,1.6288156288156288
795,1.6299389499389498
796,1.6108424908424908
797,1.5872527472527471
798,1.573772893772894
799,1.538949938949939
800,1.5557997557997558
801,1.549059829059829
802,1.5355799755799755
803,1.5243467643467643
804,1.511990231990232
805,1.5164835164835164
806,1.511990231990232
807,1.4850305250305251
808,1.503003663003663
809,1.5535531135531135
810,1.5917460317460317
811,1.6063492063492064
812,1.6164590964590964
813,1.5704029304029303
814,1.5108669108669108
815,1.538949938949939
816,1.6085958485958487
817,1.6344322344322344
818,1.6411721611721612
819,1.604102564102564
820,1.5692796092796093
821,1.5546764346764346
822,1.5715262515262516
823,1.6378021978021975
824,1.6703785103785105
825,1.6894749694749696
826,1.686105006105006
827,1.675995115995116
828,1.658021978021978
829,1.6625152625152626
830,1.705201465201465
831,1.7321611721611725
832,1.7445177045177045
833,1.7467643467643468
834,1.757997557997558
835,1.775970695970696
836,1.779340659340659
837,1.757997557997558
838,1.7827106227106226
839,1.7726007326007327
840,1.768107448107448
841,1.7546275946275949
842,1.7557509157509157
843,1.7478876678876678
844,1.7344078144078143
845,1.72991452991453
846,1.74002442002442
847,1.737777777777778
848,1.7175579975579975
849,1.7231746031746031
850,1.731037851037851
851,1.7231746031746031
852,1.737777777777778
853,1.74002442002442
854,1.7512576312576311
855,1.7624908424908423
856,1.7411477411477412
857,1.749010989010989
858,1.7557509157509157
859,1.7512576312576311
860,1.7602442002442005
861,1.7546275946275949
862,1.7411477411477412
863,1.7613675213675213
864,1.7613675213675213
865,1.7726007326007327
866,1.7703540903540904
867,1.7647374847374848
868,1.7523809523809524
869,1.7456410256410255
870,1.737777777777778
871,1.7366544566544566
872,1.749010989010989
873,1.7669841269841269
874,1.777094017094017
875,1.802930402930403
876,1.784957264957265
877,1.7748473748473748
878,1.7984371184371184
879,1.784957264957265
880,1.7748473748473748
881,1.7591208791208792
882,1.7669841269841269
883,1.779340659340659
884,1.802930402930403
885,1.8141636141636144
886,1.8332600732600728
887,1.8096703296703296
888,1.7737240537240535
889,1.7782173382173383
890,1.811916971916972
891,1.7984371184371184
892,1.775970695970696
893,1.7860805860805862
894,1.822026862026862
895,1.8366300366300363
896,1.8377533577533576
897,1.823150183150183
898,1.779340659340659
899,1.768107448107448
900,1.768107448107448
901,1.7894505494505497
902,1.7916971916971918
903,1.822026862026862
904,1.8568498168498169
905,1.8804395604395605
906,1.883809523809524
907,1.9051526251526247
908,1.9006593406593408
909,1.89953601953602
910,1.893919413919414
911,1.8624664224664225
912,1.827643467643468
913,1.800683760683761
914,1.7782173382173383
915,1.775970695970696
916,1.7883272283272282
917,1.7928205128205128
918,1.7815873015873016
919,1.775970695970696
920,1.768107448107448
921,1.7535042735042734
922,1.7535042735042734
923,1.81978021978022
924,2.127570207570208
925,2.685860805860806
926,3.291330891330891
927,3.495775335775336
928,3.444102564102564
929,2.9431013431013437
930,2.3185347985347984
931,1.9085225885225885
932,1.7074481074481074
933,1.6187057387057386
934,1.574896214896215
935,1.558046398046398
936,1.5535531135531135
937,1.541196581196581
938,1.52996336996337
939,1.5164835164835164
940,1.5288400488400489
941,1.5367032967032968
942,1.538949938949939
943,1.5277167277167276
944,1.5310866910866912
945,1.5176068376068377
946,1.4917704517704518
947,1.5254700854700856
948,1.5715262515262516
949,1.5715262515262516
950,1.565909645909646
951,1.5647863247863247
952,1.547936507936508
953,1.549059829059829
954,1.565909645909646
955,1.573772893772894
956,1.576019536019536
957,1.5827594627594628
958,1.568156288156288
959,1.574896214896215
960,1.5838827838827838
961,1.6052258852258852
962,1.5917460317460317
963,1.585006105006105
964,1.5984859584859583
965,1.6063492063492064
966,1.6243223443223442
967,1.6276923076923078
968,1.6063492063492064
969,1.6276923076923078
970,1.6703785103785105
971,1.705201465201465
972,1.7231746031746031
973,1.738901098901099
974,1.74002442002442
975,1.7344078144078143
976,1.7141880341880342
977,1.7007081807081808
978,1.7153113553113553
979,1.6816117216117217
980,1.6748717948717948
981,1.683858363858364
982,1.677118437118437
983,1.6737484737484738
984,1.678241758241758
985,1.6827350427350427
986,1.6793650793650794
987,1.6793650793650794
988,1.675995115995116
989,1.6636385836385836
990,1.667008547008547
991,1.683858363858364
992,1.693968253968254
993,1.6883516483516483
994,1.6827350427350427
995,1.684981684981685
996,1.7018315018315018
997,1.7209279609279609
998,1.7433943833943837
999,1.7411477411477412
1000,1.7366544566544566
1001,1.6928449328449329
1002,1.6276923076923078
1003,1.6052258852258852
1004,1.632185592185592
1005,1.6625152625152626
1006,1.6883516483516483
1007,1.6950915750915752
1008,1.6962148962148962
1009,1.7164346764346765
1010,1.7018315018315018
1011,1.6816117216117217
1012,1.6894749694749696
1013,1.7153113553113553
1014,1.7422710622710622
1015,1.7242979242979244
1016,1.7164346764346765
1017,1.9377289377289375
1018,2.44996336996337
1019,3.0565567765567767
1020,3.4182661782661783
1021,3.323907203907204
1022,2.867838827838828
1023,2.293821733821734
1024,1.927619047619048
1025,1.7265445665445665
1026,1.6456654456654456
1027,1.6175824175824176
1028,1.6007326007326008
1029,1.5838827838827838
1030,1.5771428571428572
1031,1.5715262515262516
1032,1.5692796092796093
1033,1.5704029304029303
1034,1.5726495726495726
1035,1.5771428571428572
1036,1.5647863247863247
1037,1.5614163614163614
1038,1.5557997557997558
1039,1.5535531135531135
1040,1.5625396825396825
1041,1.565909645909646
1042,1.5557997557997558
1043,1.5591697191697191
1044,1.5647863247863247
1045,1.5692796092796093
1046,1.5715262515262516
1047,1.568156288156288
1048,1.5793894993894997
1049,1.5805128205128205
1050,1.5906227106227109
1051,1.5872527472527471
1052,1.5906227106227109
1053,1.5883760683760684
1054,1.573772893772894
1055,1.5704029304029303
1056,1.5906227106227109
1057,1.6175824175824176
1058,1.6333089133089134
1059,1.667008547008547
1060,1.6827350427350427
1061,1.693968253968254
1062,1.7153113553113553
1063,1.7198046398046398
1064,1.7276678876678877
1065,1.7231746031746031
1066,1.7164346764346765
1067,1.713064713064713
1068,1.684981684981685
1069,1.6703785103785105
1070,1.659145299145299
1071,1.6737484737484738
1072,1.6692551892551892
1073,1.656898656898657
1074,1.659145299145299
1075,1.6692551892551892
1076,1.6737484737484738
1077,1.6715018315018315
1078,1.6816117216117217
1079,1.6894749694749696
1080,1.667008547008547
1081,1.6501587301587302
1082,1.667008547008547
1083,1.6827350427350427
1084,1.675995115995116
1085,1.677118437118437
1086,1.6928449328449329
1087,1.6917216117216116
1088,1.675995115995116
1089,1.693968253968254
1090,1.678241758241758
1091,1.6748717948717948
1092,1.7018315018315018
1093,1.72991452991453
1094,1.7231746031746031
1095,1.711941391941392
1096,1.705201465201465
1097,1.6995848595848595
1098,1.7085714285714286
1099,1.7198046398046398
1100,1.7074481074481074
1101,1.7153113553113553
1102,1.7074481074481074
1103,1.6984615384615385
1104,1.7186813186813186
1105,1.731037851037851
1106,1.7164346764346765
1107,1.7175579975579975
1108,1.7175579975579975
1109,1.7198046398046398
1110,1.7355311355311356
1111,1.74002442002442
1112,1.7523809523809524
1113,1.7433943833943837
1114,1.7433943833943837
1115,1.7355311355311356
1116,1.7433943833943837
1117,1.74002442002442
1118,1.74002442002442
1119,1.738901098901099
1120,1.738901098901099
1121,1.738901098901099
1122,1.75013431013431
1123,1.7523809523809524
1124,1.74002442002442
1125,1.722051282051282
1126,1.7209279609279609
1127,1.7265445665445665
1128,1.749010989010989
1129,1.7557509157509157
1130,1.7445177045177045
1131,1.7422710622710622
1132,1.7456410256410255
1133,1.7478876678876678
1134,1.7456410256410255
1135,1.7433943833943837
1136,1.7523809523809524
1137,1.7366544566544566
1138,1.7478876678876678
1139,1.7602442002442005
1140,1.757997557997558
1141,1.7557509157509157
1142,1.768107448107448
1143,1.7669841269841269
1144,1.7726007326007327
1145,1.7624908424908423
1146,1.7422710622710622
1147,1.749010989010989
1148,1.7467643467643468
1149,1.7546275946275949
1150,1.7523809523809524
1151,1.7557509157509157
1152,1.7647374847374848
1153,1.7703540903540904
1154,1.7658608058608058
1155,1.7658608058608058
1156,1.7557509157509157
1157,1.7602442002442005
1158,1.7647374847374848
1159,1.777094017094017
1160,1.7748473748473748
1161,1.7636141636141636
1162,1.775970695970696
1163,1.777094017094017
1164,1.7692307692307692
1165,1.7669841269841269
1166,1.7714774114774114
1167,1.7669841269841269
1168,1.7782173382173383
1169,1.7714774114774114
1170,1.7658608058608058
1171,1.7613675213675213
1172,1.7557509157509157
1173,1.7433943833943837
1174,1.7658608058608058
1175,1.779340659340659
1176,1.7928205128205128
1177,1.82989010989011
1178,1.8568498168498169
1179,1.875946275946276
1180,1.875946275946276
1181,1.869206349206349
1182,1.848986568986569
1183,1.831013431013431
1184,1.823150183150183
1185,1.823150183150183
1186,1.8085470085470088
1187,1.7973137973137974
1188,1.7860805860805862
1189,1.7703540903540904
1190,1.7726007326007327
1191,1.7782173382173383
1192,1.7748473748473748
1193,1.7827106227106226
1194,1.7591208791208792
1195,1.7141880341880342
1196,1.7602442002442005
1197,2.02984126984127
1198,2.585885225885226
1199,3.1778754578754578
1200,3.421636141636142
1201,3.216068376068376
1202,2.788083028083028
1203,2.2893284493284494
1204,1.932112332112332
1205,1.75013431013431
1206,1.6636385836385836
1207,1.6254456654456657
1208,1.5951159951159952
1209,1.568156288156288
1210,1.5355799755799755
1211,1.5333333333333334
1212,1.5434432234432234
1213,1.5456898656898657
1214,1.5535531135531135
1215,1.549059829059829
1216,1.5569230769230769
1217,1.5456898656898657
1218,1.5322100122100122
1219,1.5277167277167276
1220,1.5445665445665446
1221,1.547936507936508
1222,1.5636630036630037
1223,1.574896214896215
1224,1.565909645909646
1225,1.5625396825396825
1226,1.5625396825396825
1227,1.5827594627594628
1228,1.5894993894993894
1229,1.5614163614163614
1230,1.586129426129426
1231,1.6007326007326008
1232,1.592869352869353
1233,1.5951159951159952
1234,1.5894993894993894
1235,1.604102564102564
1236,1.6029792429792429
1237,1.6108424908424908
1238,1.6142124542124543
1239,1.6187057387057386
1240,1.6164590964590964
1241,1.6220757020757022
1242,1.6231990231990232
1243,1.6288156288156288
1244,1.6535286935286937
1245,1.6703785103785105
1246,1.6737484737484738
1247,1.6905982905982906
1248,1.7085714285714286
1249,1.713064713064713
1250,1.7287912087912087
1251,1.7422710622710622
1252,1.731037851037851
1253,1.7175579975579975
1254,1.7422710622710622
1255,1.749010989010989
1256,1.7658608058608058
1257,1.768107448107448
1258,1.7445177045177045
1259,1.6917216117216116
1260,1.6411721611721612
1261,1.6333089133089134
1262,1.6512820512820512
1263,1.6973382173382174
1264,1.7433943833943837
1265,1.7523809523809524
1266,1.7478876678876678
1267,1.738901098901099
1268,1.7456410256410255
1269,1.7523809523809524
1270,1.7523809523809524
1271,1.7512576312576311
1272,1.7478876678876678
1273,1.7355311355311356
1274,1.7254212454212454
1275,1.7287912087912087
1276,1.7456410256410255
1277,1.7433943833943837
1278,1.686105006105006
1279,1.675995115995116
1280,1.7355311355311356
1281,1.877069597069597
1282,1.847863247863248
1283,1.61982905982906
1284,1.4086446886446886
1285,1.2547496947496948
1286,1.1435409035409034
1287,1.0368253968253969
1288,0.9952625152625152
1289,0.9525763125763126
1290,0.9233699633699634
1291,1.048058608058608
1292,1.2805860805860805
1293,1.5984859584859583
1294,1.8152869352869352
1295,1.89953601953602
1296,1.9433455433455435
1297,1.964688644688645
1298,1.968058608058608
1299,1.9815384615384612
1300,2.006251526251526
1301,2.0107448107448107
1302,2.025347985347985
1303,2.02984126984127
1304,2.0388278388278387
1305,2.0657875457875456
1306,2.0725274725274727
1307,2.0646642246642246
1308,2.0545543345543344
1309,2.0792673992674
1310,2.093870573870574
1311,2.1095970695970694
1312,2.145543345543345
1313,2.175873015873016
1314,2.2073260073260075
1315,2.2230525030525032
1316,2.2623687423687424
1317,2.2994383394383395
1318,2.332014652014652
1319,2.3556043956043955
1320,2.3904273504273506
1321,2.417387057387057
1322,2.4297435897435897
1323,2.453333333333333
1324,2.466813186813187
1325,2.4465934065934065
1326,2.411770451770452
1327,2.3185347985347984
1328,2.237655677655677
1329,2.1826129426129426
1330,2.09948717948718
1331,2.0107448107448107
1332,1.9253724053724053
1333,1.848986568986569
1334,1.7714774114774114
1335,1.7231746031746031
1336,1.6917216117216116
1337,1.6512820512820512
1338,1.631062271062271
1339,1.613089133089133
1340,1.6052258852258852
1341,1.5951159951159952
1342,1.585006105006105
1343,1.5692796092796093
1344,1.574896214896215
1345,1.5951159951159952
1346,1.6018559218559218
1347,1.615335775335775
1348,1.6074725274725274
1349,1.6164590964590964
1350,1.6052258852258852
1351,1.5973626373626373
1352,1.5973626373626373
1353,1.6063492063492064
1354,1.620952380952381
1355,1.632185592185592
1356,1.6108424908424908
1357,1.6074725274725274
1358,1.613089133089133
1359,1.6007326007326008
1360,1.592869352869353
1361,1.5973626373626373
1362,1.6063492063492064
1363,1.620952380952381
1364,1.620952380952381
1365,1.6231990231990232
1366,1.631062271062271
1367,1.632185592185592
1368,1.6288156288156288
1369,1.6276923076923078
1370,1.6142124542124543
1371,1.6164590964590964
1372,1.6231990231990232
1373,1.6344322344322344
1374,1.6434188034188033
1375,1.620952380952381
1376,1.61982905982906
1377,1.6254456654456657
1378,1.631062271062271
1379,1.64004884004884
1380,1.6445421245421246
1381,1.6524053724053724
1382,1.6535286935286937
1383,1.659145299145299
1384,1.6748717948717948
1385,1.683858363858364
1386,1.686105006105006
1387,1.6748717948717948
1388,1.659145299145299
1389,1.6546520146520147
1390,1.6602686202686203
1391,1.6512820512820512
1392,1.6411721611721612
1393,1.64004884004884
1394,1.6512820512820512
1395,1.6681318681318682
1396,1.677118437118437
1397,1.6816117216117217
1398,1.6816117216117217
1399,1.6950915750915752
1400,1.683858363858364
1401,1.6872283272283273
1402,1.6905982905982906
1403,1.686105006105006
1404,1.6973382173382174
1405,1.6905982905982906
1406,1.711941391941392
1407,1.710818070818071
1408,1.7007081807081808
1409,1.6962148962148962
1410,1.693968253968254
1411,1.6905982905982906
1412,1.6973382173382174
1413,1.7141880341880342
1414,1.704078144078144
1415,1.6973382173382174
1416,1.6905982905982906
1417,1.6883516483516483
1418,1.6928449328449329
1419,1.702954822954823
1420,1.7096947496947497
1421,1.7254212454212454
1422,1.7692307692307692
1423,1.8175335775335772
1424,1.8590964590964592
1425,1.8658363858363856
1426,1.855726495726496
1427,1.8467399267399267
1428,1.832136752136752
1429,1.8051770451770448
1430,1.7669841269841269
1431,1.74002442002442
1432,1.737777777777778
1433,1.72991452991453
1434,1.7411477411477412
1435,1.7355311355311356
1436,1.7175579975579975
1437,1.7096947496947497
1438,1.7085714285714286
1439,1.6995848595848595
1440,1.6625152625152626
1441,1.656898656898657
1442,1.8164102564102564
1443,2.283711843711844
1444,2.9475946275946274
1445,3.337387057387057
1446,3.2306715506715507
1447,2.7858363858363857
1448,2.348864468864469
1449,1.9747985347985348
1450,1.768107448107448
1451,1.6647619047619049
1452,1.6175824175824176
1453,1.5951159951159952
1454,1.574896214896215
1455,1.5614163614163614
1456,1.558046398046398
1457,1.5602930402930404
1458,1.5535531135531135
1459,1.5546764346764346
1460,1.567032967032967
1461,1.565909645909646
1462,1.5647863247863247
1463,1.5636630036630037
1464,1.568156288156288
1465,1.5715262515262516
1466,1.5827594627594628
1467,1.5883760683760684
1468,1.592869352869353
1469,1.5996092796092796
1470,1.5962393162393165
1471,1.586129426129426
1472,1.593992673992674
1473,1.6164590964590964
1474,1.6231990231990232
1475,1.615335775335775
1476,1.620952380952381
1477,1.611965811965812
1478,1.6175824175824176
1479,1.6175824175824176
1480,1.6288156288156288
1481,1.6288156288156288
1482,1.6288156288156288
1483,1.6355555555555557
1484,1.6378021978021975
1485,1.636678876678877
1486,1.6288156288156288
1487,1.632185592185592
1488,1.6411721611721612
1489,1.6557753357753358
1490,1.6737484737484738
1491,1.678241758241758
1492,1.6984615384615385
1493,1.7063247863247863
1494,1.7287912087912087
1495,1.74002442002442
1496,1.7523809523809524
1497,1.7557509157509157
1498,1.757997557997558
1499,1.7591208791208792
1500,1.7613675213675213
1501,1.7546275946275949
1502,1.7546275946275949
1503,1.757997557997558
1504,1.7456410256410255
1505,1.7535042735042734
1506,1.7591208791208792
1507,1.7535042735042734
1508,1.7467643467643468
1509,1.75013431013431
1510,1.7445177045177045
1511,1.749010989010989
1512,1.738901098901099
1513,1.749010989010989
1514,1.7512576312576311
1515,1.7535042735042734
1516,1.7557509157509157
1517,1.7602442002442005
1518,1.756874236874237
1519,1.75013431013431
1520,1.7512576312576311
1521,1.75013431013431
1522,1.7355311355311356
1523,1.7355311355311356
1524,1.7422710622710622
1525,1.7512576312576311
1526,1.7557509157509157
1527,1.757997557997558
1528,1.7535042735042734
1529,1.7512576312576311
1530,1.7512576312576311
1531,1.7535042735042734
1532,1.7546275946275949
1533,1.7624908424908423
1534,1.757997557997558
1535,1.75013431013431
1536,1.749010989010989
1537,1.7478876678876678
1538,1.7478876678876678
1539,1.7602442002442005
1540,1.7647374847374848
1541,1.7658608058608058
1542,1.7602442002442005
1543,1.7546275946275949
1544,1.7523809523809524
1545,1.7535042735042734
1546,1.7523809523809524
1547,1.749010989010989
1548,1.737777777777778
1549,1.7321611721611725
1550,1.7231746031746031
1551,1.7332844932844933
1552,1.7456410256410255
1553,1.7445177045177045
1554,1.749010989010989
1555,1.7669841269841269
1556,1.7973137973137974
1557,1.827643467643468
1558,1.8568498168498169
1559,1.8714529914529916
1560,1.8534798534798536
1561,1.841123321123321
1562,1.8388766788766788
1563,1.8242735042735043
1564,1.800683760683761
1565,1.777094017094017
1566,1.7647374847374848
1567,1.7591208791208792
1568,1.7332844932844933
1569,1.749010989010989
1570,1.749010989010989
1571,1.7591208791208792
1572,1.7647374847374848
1573,1.7658608058608058
1574,1.738901098901099
1575,1.75013431013431
1576,1.9534554334554333
1577,2.440976800976801
1578,3.053186813186813
1579,3.4418559218559217
1580,3.337387057387057
1581,2.9273748473748475
1582,2.4106471306471304
1583,2.0006349206349205
1584,1.779340659340659
1585,1.6950915750915752
1586,1.6546520146520147
1587,1.615335775335775
1588,1.5838827838827838
1589,1.567032967032967
1590,1.5557997557997558
1591,1.5557997557997558
1592,1.5434432234432234
1593,1.5423199023199023
1594,1.5513064713064713
1595,1.5513064713064713
1596,1.541196581196581
1597,1.5513064713064713
1598,1.5614163614163614
1599,1.5625396825396825
1600,1.5535531135531135
1601,1.52996336996337
1602,1.5423199023199023
1603,1.54007326007326
1604,1.5322100122100122
1605,1.546813186813187
1606,1.5614163614163614
1607,1.5715262515262516
1608,1.567032967032967
1609,1.5883760683760684
1610,1.5883760683760684
1611,1.5883760683760684
1612,1.586129426129426
1613,1.6018559218559218
1614,1.6299389499389498
1615,1.6467887667887668
1616,1.659145299145299
1617,1.6737484737484738
1618,1.6512820512820512
1619,1.6456654456654456
1620,1.6715018315018315
1621,1.684981684981685
1622,1.6995848595848595
1623,1.7164346764346765
1624,1.7332844932844933
1625,1.72991452991453
1626,1.74002442002442
1627,1.7613675213675213
1628,1.7523809523809524
1629,1.7478876678876678
1630,1.74002442002442
1631,1.737777777777778
1632,1.7355311355311356
1633,1.7254212454212454
1634,1.7175579975579975
1635,1.6950915750915752
1636,1.6894749694749696
1637,1.6995848595848595
1638,1.6962148962148962
1639,1.693968253968254
1640,1.6894749694749696
1641,1.6883516483516483
1642,1.710818070818071
1643,1.7085714285714286
1644,1.684981684981685
1645,1.6894749694749696
1646,1.7085714285714286
1647,1.711941391941392
1648,1.710818070818071
1649,1.713064713064713
1650,1.7198046398046398
1651,1.722051282051282
1652,1.7096947496947497
1653,1.722051282051282
1654,1.7209279609279609
1655,1.722051282051282
1656,1.7254212454212454
1657,1.7321611721611725
1658,1.7153113553113553
1659,1.7096947496947497
1660,1.6995848595848595
1661,1.710818070818071
1662,1.7141880341880342
1663,1.7153113553113553
1664,1.7164346764346765
1665,1.722051282051282
1666,1.711941391941392
1667,1.7164346764346765
1668,1.7254212454212454
1669,1.7355311355311356
1670,1.7321611721611725
1671,1.7478876678876678
1672,1.757997557997558
1673,1.7411477411477412
1674,1.7287912087912087
1675,1.7422710622710622
1676,1.7512576312576311
1677,1.7456410256410255
1678,1.7422710622710622
1679,1.7445177045177045
1680,1.7344078144078143
1681,1.74002442002442
1682,1.74002442002442
1683,1.72991452991453
1684,1.7141880341880342
1685,1.731037851037851
1686,1.7422710622710622
1687,1.749010989010989
1688,1.7433943833943837
1689,1.7636141636141636
1690,1.800683760683761
1691,1.8388766788766788
1692,1.8647130647130647
1693,1.883809523809524
1694,1.8635897435897435
1695,1.8512332112332115
1696,1.832136752136752
1697,1.795067155067155
1698,1.7726007326007327
1699,1.756874236874237
1700,1.7602442002442005
1701,1.7658608058608058
1702,1.775970695970696
1703,1.7726007326007327
1704,1.7815873015873016
1705,1.7692307692307692
1706,1.7905738705738703
1707,1.7647374847374848
1708,1.737777777777778
1709,1.7748473748473748
1710,2.047814407814408
1711,2.598241758241758
1712,3.15990231990232
1713,3.35985347985348
1714,3.101489621489621
1715,2.689230769230769
1716,2.2365323565323565
1717,1.911892551892552
1718,1.738901098901099
1719,1.677118437118437
1720,1.6546520146520147
1721,1.6333089133089134
1722,1.6142124542124543
1723,1.5951159951159952
1724,1.5906227106227109
1725,1.5602930402930404
1726,1.5524297924297925
1727,1.5501831501831502
1728,1.5524297924297925
1729,1.5692796092796093
1730,1.5782661782661782
1731,1.568156288156288
1732,1.5715262515262516
1733,1.593992673992674
1734,1.6018559218559218
1735,1.6007326007326008
1736,1.592869352869353
1737,1.5962393162393165
1738,1.6007326007326008
1739,1.611965811965812
1740,1.611965811965812
1741,1.615335775335775
1742,1.620952380952381
1743,1.6164590964590964
1744,1.6097191697191695
1745,1.6063492063492064
1746,1.6164590964590964
1747,1.6467887667887668
1748,1.656898656898657
1749,1.6636385836385836
1750,1.677118437118437
1751,1.6793650793650794
1752,1.6793650793650794
1753,1.6804884004884004
1754,1.6962148962148962
1755,1.7186813186813186
1756,1.738901098901099
1757,1.7535042735042734
1758,1.7658608058608058
1759,1.7737240537240535
1760,1.777094017094017
1761,1.7613675213675213
1762,1.7467643467643468
1763,1.731037851037851
1764,1.7332844932844933
1765,1.7276678876678877
1766,1.705201465201465
1767,1.6917216117216116
1768,1.6793650793650794
1769,1.6827350427350427
1770,1.6715018315018315
1771,1.6715018315018315
1772,1.6973382173382174
1773,1.702954822954823
1774,1.704078144078144
1775,1.6905982905982906
1776,1.7007081807081808
1777,1.704078144078144
1778,1.7096947496947497
1779,1.7254212454212454
1780,1.7096947496947497
1781,1.6883516483516483
1782,1.6872283272283273
1783,1.6917216117216116
1784,1.6917216117216116
1785,1.6962148962148962
1786,1.7198046398046398
1787,1.7198046398046398
1788,1.7186813186813186
1789,1.7276678876678877
1790,1.7254212454212454
1791,1.7231746031746031
1792,1.7265445665445665
1793,1.731037851037851
1794,1.7591208791208792
1795,1.7658608058608058
1796,1.7636141636141636
1797,1.7737240537240535
1798,1.7535042735042734
1799,1.7591208791208792
1800,1.7883272283272282
1801,1.796190476190476
1802,1.8107936507936508
1803,1.8074236874236875
1804,1.804053724053724
1805,1.800683760683761
1806,1.7872039072039072
1807,1.779340659340659
1808,1.783833943833944
1809,1.784957264957265
1810,1.7860805860805862
1811,1.7860805860805862
1812,1.7737240537240535
1813,1.7478876678876678
1814,1.7512576312576311
1815,1.7433943833943837
1816,1.737777777777778
1817,1.7433943833943837
1818,1.7523809523809524
1819,1.7703540903540904
1820,1.7872039072039072
1821,1.82989010989011
1822,1.857973137973138
1823,1.8793162393162397
1824,1.904029304029304
1825,1.914139194139194
1826,1.9163858363858364
1827,1.9073992673992677
1828,1.8781929181929184
1829,1.8523565323565323
1830,1.8366300366300363
1831,1.820903540903541
1832,1.8051770451770448
1833,1.7894505494505497
1834,1.783833943833944
1835,1.783833943833944
1836,1.7782173382173383
1837,1.7703540903540904
1838,1.7872039072039072
1839,1.7658608058608058
1840,1.722051282051282
1841,1.7557509157509157
1842,1.9467155067155064
1843,2.4432234432234434
1844,3.0464468864468865
1845,3.3665934065934064
1846,3.1947252747252746
1847,2.7633699633699638
1848,2.31965811965812
1849,1.9781684981684984
1850,1.7939438339438338
1851,1.6973382173382174
1852,1.658021978021978
1853,1.6288156288156288
1854,1.6018559218559218
1855,1.576019536019536
1856,1.5692796092796093
1857,1.5692796092796093
1858,1.5805128205128205
1859,1.5917460317460317
1860,1.592869352869353
1861,1.574896214896215
1862,1.576019536019536
1863,1.5715262515262516
1864,1.5602930402930404
1865,1.5546764346764346
1866,1.5625396825396825
1867,1.5838827838827838
1868,1.6029792429792429
1869,1.6018559218559218
1870,1.6097191697191695
1871,1.6254456654456657
1872,1.6411721611721612
1873,1.64004884004884
1874,1.632185592185592
1875,1.636678876678877
1876,1.659145299145299
1877,1.6737484737484738
1878,1.684981684981685
1879,1.6950915750915752
1880,1.7153113553113553
1881,1.7231746031746031
1882,1.731037851037851
1883,1.7287912087912087
1884,1.7287912087912087
1885,1.7433943833943837
1886,1.7602442002442005
1887,1.7714774114774114
1888,1.7692307692307692
1889,1.7535042735042734
1890,1.749010989010989
1891,1.7602442002442005
1892,1.777094017094017
1893,1.7557509157509157
1894,1.7456410256410255
1895,1.7546275946275949
1896,1.7456410256410255
1897,1.7355311355311356
1898,1.731037851037851
1899,1.7063247863247863
1900,1.6973382173382174
1901,1.686105006105006
1902,1.678241758241758
1903,1.6726251526251523
1904,1.678241758241758
1905,1.675995115995116
1906,1.6647619047619049
1907,1.6613919413919414
1908,1.6647619047619049
1909,1.6703785103785105
1910,1.6524053724053724
1911,1.667008547008547
1912,1.6490354090354091
1913,1.6636385836385836
1914,1.647912087912088
1915,1.6512820512820512
1916,1.683858363858364
1917,1.7254212454212454
1918,1.7366544566544566
1919,1.7321611721611725
1920,1.710818070818071
1921,1.6703785103785105
1922,1.6501587301587302
1923,1.658021978021978
1924,1.6894749694749696
1925,1.7063247863247863
1926,1.7096947496947497
1927,1.7276678876678877
1928,1.75013431013431
1929,1.7456410256410255
1930,1.7624908424908423
1931,1.7512576312576311
1932,1.7535042735042734
1933,1.737777777777778
1934,1.7422710622710622
1935,1.75013431013431
1936,1.7467643467643468
1937,1.738901098901099
1938,1.737777777777778
1939,1.74002442002442
1940,1.7433943833943837
1941,1.7456410256410255
1942,1.7478876678876678
1943,1.7512576312576311
1944,1.7478876678876678
1945,1.7366544566544566
1946,1.737777777777778
1947,1.756874236874237
1948,1.7456410256410255
1949,1.7467643467643468
1950,1.7456410256410255
1951,1.7467643467643468
1952,1.7411477411477412
1953,1.7321611721611725
1954,1.7242979242979244
1955,1.7355311355311356
1956,1.7355311355311356
1957,1.7523809523809524
1958,1.775970695970696
1959,1.8085470085470088
1960,1.8635897435897435
1961,1.874822954822955
1962,1.8467399267399267
1963,1.82989010989011
1964,1.8175335775335772
1965,1.8141636141636144
1966,1.7939438339438338
1967,1.775970695970696
1968,1.7613675213675213
1969,1.7546275946275949
1970,1.756874236874237
1971,1.7557509157509157
1972,1.7591208791208792
1973,1.756874236874237
1974,1.7546275946275949
1975,1.777094017094017
1976,1.7737240537240535
1977,1.75013431013431
1978,1.7984371184371184
1979,2.06017094017094
1980,2.566788766788767
1981,3.108229548229548
1982,3.368840048840049
1983,3.1902319902319904
1984,2.767863247863248
1985,2.2545054945054943
1986,1.9186324786324789
1987,1.722051282051282
1988,1.6557753357753358
1989,1.5973626373626373
1990,1.558046398046398
1991,1.5243467643467643
1992,1.501880341880342
1993,1.5086202686202683
1994,1.5086202686202683
1995,1.5097435897435898
1996,1.501880341880342
1997,1.5041269841269842
1998,1.5097435897435898
1999,1.5187301587301587
