Index,II
0,1.737777777777778
1,1.7422710622710622
2,1.7546275946275949
3,1.75013431013431
4,1.7411477411477412
5,1.75013431013431
6,1.7726007326007327
7,1.7557509157509157
8,1.7557509157509157
9,1.7523809523809524
10,1.738901098901099
11,1.75013431013431
12,1.7355311355311356
13,1.7355311355311356
14,1.737777777777778
15,1.738901098901099
16,1.75013431013431
17,1.731037851037851
18,1.7287912087912087
19,1.7546275946275949
20,1.7433943833943837
21,1.749010989010989
22,1.72991452991453
23,1.7366544566544566
24,1.7613675213675213
25,1.7602442002442005
26,1.7726007326007327
27,1.7860805860805862
28,1.8141636141636144
29,1.831013431013431
30,1.8512332112332115
31,1.8332600732600728
32,1.8085470085470088
33,1.7883272283272282
34,1.777094017094017
35,1.777094017094017
36,1.757997557997558
37,1.7535042735042734
38,1.7445177045177045
39,1.7265445665445665
40,1.749010989010989
41,1.7422710622710622
42,1.7557509157509157
43,1.7355311355311356
44,1.7366544566544566
45,1.737777777777778
46,1.72991452991453
47,1.7164346764346765
48,1.7096947496947497
49,1.820903540903541
50,2.068034188034188
51,2.505006105006105
52,2.8543589743589743
53,2.6723809523809523
54,2.147789987789988
55,1.6973382173382174
56,1.4693040293040294
57,1.4007814407814407
58,1.3558485958485955
59,1.2558730158730158
60,1.237899877899878
61,1.283956043956044
62,1.4176312576312575
63,1.5153601953601954
64,1.6097191697191695
65,1.6512820512820512
66,1.6535286935286937
67,1.6737484737484738
68,1.677118437118437
69,1.702954822954823
70,1.6816117216117217
71,1.6715018315018315
72,1.6905982905982906
73,1.7074481074481074
74,1.7096947496947497
75,1.710818070818071
76,1.6962148962148962
77,1.711941391941392
78,1.7153113553113553
79,1.7321611721611725
80,1.7254212454212454
81,1.7175579975579975
82,1.7242979242979244
83,1.710818070818071
84,1.7175579975579975
85,1.710818070818071
86,1.7265445665445665
87,1.7141880341880342
88,1.72991452991453
89,1.7467643467643468
90,1.7456410256410255
91,1.7546275946275949
92,1.74002442002442
93,1.7422710622710622
94,1.7276678876678877
95,1.7512576312576311
96,1.7366544566544566
97,1.737777777777778
98,1.7332844932844933
99,1.7355311355311356
100,1.7355311355311356
101,1.7523809523809524
102,1.731037851037851
103,1.7467643467643468
104,1.7411477411477412
105,1.7254212454212454
106,1.7546275946275949
107,1.7456410256410255
108,1.738901098901099
109,1.7287912087912087
110,1.7523809523809524
111,1.7265445665445665
112,1.749010989010989
113,1.7624908424908423
114,1.7546275946275949
115,1.74002442002442
116,1.7714774114774114
117,1.779340659340659
118,1.7714774114774114
119,1.7703540903540904
120,1.8018070818070813
121,1.7860805860805862
122,1.775970695970696
123,1.7748473748473748
124,1.811916971916972
125,1.811916971916972
126,1.8164102564102564
127,1.811916971916972
128,1.831013431013431
129,1.8164102564102564
130,1.7815873015873016
131,1.7883272283272282
132,1.8063003663003665
133,1.811916971916972
134,1.775970695970696
135,1.7546275946275949
136,1.7535042735042734
137,1.7523809523809524
138,1.7546275946275949
139,1.7815873015873016
140,1.779340659340659
141,1.7557509157509157
142,1.7366544566544566
143,1.7557509157509157
144,1.7557509157509157
145,1.7535042735042734
146,1.7478876678876678
147,1.72991452991453
148,1.7478876678876678
149,1.7355311355311356
150,1.72991452991453
151,1.7456410256410255
152,1.7411477411477412
153,1.7287912087912087
154,1.7355311355311356
155,1.757997557997558
156,1.777094017094017
157,1.7703540903540904
158,1.7658608058608058
159,1.7973137973137974
160,1.8141636141636144
161,1.8074236874236875
162,1.7737240537240535
163,1.775970695970696
164,1.7815873015873016
165,1.7692307692307692
166,1.7523809523809524
167,1.7714774114774114
168,1.7714774114774114
169,1.7535042735042734
170,1.7276678876678877
171,1.738901098901099
172,1.737777777777778
173,1.75013431013431
174,1.775970695970696
175,1.75013431013431
176,1.74002442002442
177,1.7557509157509157
178,1.737777777777778
179,1.7478876678876678
180,1.737777777777778
181,1.731037851037851
182,1.7276678876678877
183,1.7355311355311356
184,1.72991452991453
185,1.72991452991453
186,1.7287912087912087
187,1.731037851037851
188,1.7366544566544566
189,1.7422710622710622
190,1.7366544566544566
191,1.7422710622710622
192,1.731037851037851
193,1.7467643467643468
194,1.7557509157509157
195,1.7422710622710622
196,1.7366544566544566
197,1.749010989010989
198,1.7332844932844933
199,1.7321611721611725
200,1.7523809523809524
201,1.7366544566544566
202,1.7546275946275949
203,1.738901098901099
204,1.7276678876678877
205,1.7276678876678877
206,1.74002442002442
207,1.7535042735042734
208,1.7669841269841269
209,1.7523809523809524
210,1.75013431013431
211,1.7557509157509157
212,1.756874236874237
213,1.737777777777778
214,1.7591208791208792
215,1.7669841269841269
216,1.7546275946275949
217,1.7669841269841269
218,1.768107448107448
219,1.7939438339438338
220,1.7928205128205128
221,1.768107448107448
222,1.7703540903540904
223,1.7602442002442005
224,1.7456410256410255
225,1.7456410256410255
226,1.779340659340659
227,1.7872039072039072
228,1.7928205128205128
229,1.822026862026862
230,1.8388766788766788
231,1.8624664224664225
232,1.868083028083028
233,1.86021978021978
234,1.8725763125763129
235,1.8725763125763129
236,1.8590964590964592
237,1.842246642246642
238,1.811916971916972
239,1.7939438339438338
240,1.7557509157509157
241,1.737777777777778
242,1.7546275946275949
243,1.7422710622710622
244,1.7411477411477412
245,1.7276678876678877
246,1.7276678876678877
247,1.7344078144078143
248,1.7287912087912087
249,1.7063247863247863
250,1.686105006105006
251,1.6804884004884004
252,1.7860805860805862
253,2.114090354090354
254,2.5926251526251525
255,2.8914285714285715
256,2.7004639804639803
257,2.1286935286935287
258,1.6737484737484738
259,1.449084249084249
260,1.3367521367521369
261,1.2817094017094015
262,1.246886446886447
263,1.213186813186813
264,1.287326007326007
265,1.4603174603174602
266,1.5816361416361415
267,1.6299389499389498
268,1.6434188034188033
269,1.6602686202686203
270,1.6715018315018315
271,1.6647619047619049
272,1.6625152625152626
273,1.677118437118437
274,1.665885225885226
275,1.6647619047619049
276,1.6546520146520147
277,1.6512820512820512
278,1.6535286935286937
279,1.6602686202686203
280,1.656898656898657
281,1.6883516483516483
282,1.6883516483516483
283,1.684981684981685
284,1.686105006105006
285,1.677118437118437
286,1.6973382173382174
287,1.6962148962148962
288,1.6894749694749696
289,1.7063247863247863
290,1.7153113553113553
291,1.72991452991453
292,1.7366544566544566
293,1.7355311355311356
294,1.72991452991453
295,1.7242979242979244
296,1.7085714285714286
297,1.731037851037851
298,1.7242979242979244
299,1.722051282051282
300,1.7433943833943837
301,1.7535042735042734
302,1.7265445665445665
303,1.7535042735042734
304,1.7523809523809524
305,1.749010989010989
306,1.7557509157509157
307,1.75013431013431
308,1.731037851037851
309,1.7546275946275949
310,1.756874236874237
311,1.749010989010989
312,1.7411477411477412
313,1.7366544566544566
314,1.7478876678876678
315,1.7467643467643468
316,1.7478876678876678
317,1.7557509157509157
318,1.7602442002442005
319,1.74002442002442
320,1.7535042735042734
321,1.7456410256410255
322,1.7546275946275949
323,1.757997557997558
324,1.7624908424908423
325,1.777094017094017
326,1.7703540903540904
327,1.7703540903540904
328,1.7782173382173383
329,1.7737240537240535
330,1.756874236874237
331,1.7366544566544566
332,1.7355311355311356
333,1.7467643467643468
334,1.7411477411477412
335,1.72991452991453
336,1.731037851037851
337,1.7287912087912087
338,1.7355311355311356
339,1.7512576312576311
340,1.7355311355311356
341,1.7366544566544566
342,1.7355311355311356
343,1.7332844932844933
344,1.7445177045177045
345,1.7276678876678877
346,1.7433943833943837
347,1.7355311355311356
348,1.7344078144078143
349,1.7467643467643468
350,1.7456410256410255
351,1.7254212454212454
352,1.749010989010989
353,1.7512576312576311
354,1.756874236874237
355,1.749010989010989
356,1.7557509157509157
357,1.7411477411477412
358,1.7467643467643468
359,1.737777777777778
360,1.7254212454212454
361,1.72991452991453
362,1.7411477411477412
363,1.7422710622710622
364,1.7692307692307692
365,1.7658608058608058
366,1.756874236874237
367,1.7602442002442005
368,1.7703540903540904
369,1.7782173382173383
370,1.7613675213675213
371,1.7726007326007327
372,1.7523809523809524
373,1.7535042735042734
374,1.7422710622710622
375,1.7287912087912087
376,1.7355311355311356
377,1.75013431013431
378,1.7557509157509157
379,1.768107448107448
380,1.7804639804639804
381,1.7928205128205128
382,1.7557509157509157
383,1.7422710622710622
384,1.75013431013431
385,1.7287912087912087
386,1.7276678876678877
387,1.7287912087912087
388,1.7276678876678877
389,1.738901098901099
390,1.7355311355311356
391,1.7344078144078143
392,1.75013431013431
393,1.7366544566544566
394,1.7535042735042734
395,1.749010989010989
396,1.7557509157509157
397,1.7456410256410255
398,1.7276678876678877
399,1.7546275946275949
400,1.7512576312576311
401,1.7535042735042734
402,1.7321611721611725
403,1.7546275946275949
404,1.7523809523809524
405,1.7332844932844933
406,1.7535042735042734
407,1.7332844932844933
408,1.757997557997558
409,1.731037851037851
410,1.7265445665445665
411,1.7265445665445665
412,1.75013431013431
413,1.756874236874237
414,1.756874236874237
415,1.7535042735042734
416,1.7535042735042734
417,1.7478876678876678
418,1.7321611721611725
419,1.7535042735042734
420,1.749010989010989
421,1.7456410256410255
422,1.738901098901099
423,1.7535042735042734
424,1.7726007326007327
425,1.7658608058608058
426,1.779340659340659
427,1.8152869352869352
428,1.843369963369964
429,1.8467399267399267
430,1.8546031746031744
431,1.9085225885225885
432,1.9107692307692308
433,1.895042735042735
434,1.8613431013431008
435,1.8512332112332115
436,1.8467399267399267
437,1.8377533577533576
438,1.8107936507936508
439,1.795067155067155
440,1.7523809523809524
441,1.756874236874237
442,1.7422710622710622
443,1.7287912087912087
444,1.72991452991453
445,1.7478876678876678
446,1.7523809523809524
447,1.738901098901099
448,1.7287912087912087
449,1.737777777777778
450,1.7287912087912087
451,1.722051282051282
452,1.702954822954823
453,1.7827106227106226
454,2.043321123321124
455,2.5106227106227106
456,2.8790720390720392
457,2.807179487179487
458,2.267985347985348
459,1.768107448107448
460,1.4884004884004884
461,1.3873015873015873
462,1.3187789987789988
463,1.2862026862026863
464,1.2547496947496948
465,1.338998778998779
466,1.4805372405372406
467,1.6063492063492064
468,1.6737484737484738
469,1.713064713064713
470,1.7209279609279609
471,1.7265445665445665
472,1.722051282051282
473,1.72991452991453
474,1.7287912087912087
475,1.7523809523809524
476,1.7411477411477412
477,1.7456410256410255
478,1.731037851037851
479,1.7456410256410255
480,1.7411477411477412
481,1.7422710622710622
482,1.7512576312576311
483,1.757997557997558
484,1.749010989010989
485,1.7355311355311356
486,1.731037851037851
487,1.7422710622710622
488,1.7332844932844933
489,1.7231746031746031
490,1.7175579975579975
491,1.75013431013431
492,1.7321611721611725
493,1.7344078144078143
494,1.7254212454212454
495,1.7096947496947497
496,1.7141880341880342
497,1.7007081807081808
498,1.713064713064713
499,1.6928449328449329
500,1.693968253968254
501,1.705201465201465
502,1.7096947496947497
503,1.722051282051282
504,1.702954822954823
505,1.6928449328449329
506,1.7007081807081808
507,1.6973382173382174
508,1.713064713064713
509,1.711941391941392
510,1.7231746031746031
511,1.7209279609279609
512,1.7141880341880342
513,1.7254212454212454
514,1.7321611721611725
515,1.7153113553113553
516,1.722051282051282
517,1.711941391941392
518,1.7332844932844933
519,1.7242979242979244
520,1.7287912087912087
521,1.7433943833943837
522,1.7478876678876678
523,1.731037851037851
524,1.737777777777778
525,1.737777777777778
526,1.7658608058608058
527,1.7523809523809524
528,1.7613675213675213
529,1.7478876678876678
530,1.7557509157509157
531,1.72991452991453
532,1.731037851037851
533,1.7433943833943837
534,1.7523809523809524
535,1.7254212454212454
536,1.722051282051282
537,1.7355311355311356
538,1.7422710622710622
539,1.7321611721611725
540,1.7287912087912087
541,1.7254212454212454
542,1.7209279609279609
543,1.711941391941392
544,1.704078144078144
545,1.702954822954823
546,1.7085714285714286
547,1.7096947496947497
548,1.7141880341880342
549,1.7153113553113553
550,1.6950915750915752
551,1.6917216117216116
552,1.6804884004884004
553,1.6715018315018315
554,1.6726251526251523
555,1.675995115995116
556,1.6894749694749696
557,1.675995115995116
558,1.675995115995116
559,1.6804884004884004
560,1.6827350427350427
561,1.7096947496947497
562,1.702954822954823
563,1.7085714285714286
564,1.705201465201465
565,1.7096947496947497
566,1.711941391941392
567,1.7164346764346765
568,1.693968253968254
569,1.7254212454212454
570,1.7096947496947497
571,1.7153113553113553
572,1.7287912087912087
573,1.7366544566544566
574,1.7355311355311356
575,1.7141880341880342
576,1.722051282051282
577,1.7478876678876678
578,1.7456410256410255
579,1.7445177045177045
580,1.7523809523809524
581,1.7512576312576311
582,1.7467643467643468
583,1.7332844932844933
584,1.7231746031746031
585,1.7422710622710622
586,1.7445177045177045
587,1.749010989010989
588,1.737777777777778
589,1.7478876678876678
590,1.7276678876678877
591,1.7254212454212454
592,1.74002442002442
593,1.7332844932844933
594,1.7478876678876678
595,1.7535042735042734
596,1.7692307692307692
597,1.7804639804639804
598,1.7782173382173383
599,1.7669841269841269
600,1.7602442002442005
601,1.7591208791208792
602,1.7478876678876678
603,1.75013431013431
604,1.7535042735042734
605,1.756874236874237
606,1.7512576312576311
607,1.74002442002442
608,1.75013431013431
609,1.7591208791208792
610,1.7535042735042734
611,1.7535042735042734
612,1.7737240537240535
613,1.7827106227106226
614,1.7714774114774114
615,1.775970695970696
616,1.8063003663003665
617,1.8141636141636144
618,1.800683760683761
619,1.7872039072039072
620,1.7815873015873016
621,1.7804639804639804
622,1.7815873015873016
623,1.7827106227106226
624,1.8018070818070813
625,1.8018070818070813
626,1.800683760683761
627,1.7815873015873016
628,1.7928205128205128
629,1.7860805860805862
630,1.7860805860805862
631,1.7748473748473748
632,1.7737240537240535
633,1.777094017094017
634,1.777094017094017
635,1.7669841269841269
636,1.7602442002442005
637,1.7692307692307692
638,1.7658608058608058
639,1.7602442002442005
640,1.7591208791208792
641,1.7726007326007327
642,1.7872039072039072
643,1.7658608058608058
644,1.7726007326007327
645,1.7669841269841269
646,1.7478876678876678
647,1.7512576312576311
648,1.7557509157509157
649,1.7535042735042734
650,1.7557509157509157
651,1.74002442002442
652,1.7546275946275949
653,1.749010989010989
654,1.7512576312576311
655,1.756874236874237
656,1.756874236874237
657,1.7344078144078143
658,1.7456410256410255
659,1.7523809523809524
660,1.7602442002442005
661,1.777094017094017
662,1.7905738705738703
663,1.811916971916972
664,1.827643467643468
665,1.8152869352869352
666,1.7973137973137974
667,1.800683760683761
668,1.8107936507936508
669,1.7905738705738703
670,1.7523809523809524
671,1.7557509157509157
672,1.7433943833943837
673,1.7411477411477412
674,1.7411477411477412
675,1.7366544566544566
676,1.7153113553113553
677,1.7231746031746031
678,1.7074481074481074
679,1.7254212454212454
680,1.7344078144078143
681,1.702954822954823
682,1.6602686202686203
683,1.6816117216117217
684,1.8546031746031744
685,2.2106959706959706
686,2.635311355311355
687,2.8925518925518925
688,2.5768986568986567
689,2.035457875457876
690,1.6333089133089134
691,1.4356043956043956
692,1.3345054945054946
693,1.2772161172161172
694,1.2637362637362637
695,1.2862026862026863
696,1.4187545787545788
697,1.514236874236874
698,1.6220757020757022
699,1.6602686202686203
700,1.702954822954823
701,1.6894749694749696
702,1.6917216117216116
703,1.6962148962148962
704,1.722051282051282
705,1.7242979242979244
706,1.7175579975579975
707,1.7254212454212454
708,1.7366544566544566
709,1.7332844932844933
710,1.7366544566544566
711,1.7254212454212454
712,1.7265445665445665
713,1.7355311355311356
714,1.7557509157509157
715,1.7512576312576311
716,1.7535042735042734
717,1.7422710622710622
718,1.7321611721611725
719,1.7355311355311356
720,1.756874236874237
721,1.7467643467643468
722,1.7456410256410255
723,1.738901098901099
724,1.7287912087912087
725,1.7287912087912087
726,1.7535042735042734
727,1.7321611721611725
728,1.75013431013431
729,1.7321611721611725
730,1.731037851037851
731,1.7467643467643468
732,1.7478876678876678
733,1.7478876678876678
734,1.7366544566544566
735,1.75013431013431
736,1.7332844932844933
737,1.7366544566544566
738,1.7456410256410255
739,1.756874236874237
740,1.7602442002442005
741,1.757997557997558
742,1.7456410256410255
743,1.7512576312576311
744,1.7512576312576311
745,1.7344078144078143
746,1.7344078144078143
747,1.7523809523809524
748,1.7726007326007327
749,1.7411477411477412
750,1.738901098901099
751,1.756874236874237
752,1.7669841269841269
753,1.777094017094017
754,1.8085470085470088
755,1.811916971916972
756,1.795067155067155
757,1.7872039072039072
758,1.7703540903540904
759,1.7782173382173383
760,1.7692307692307692
761,1.7703540903540904
762,1.7827106227106226
763,1.7973137973137974
764,1.7692307692307692
765,1.7613675213675213
766,1.7883272283272282
767,1.779340659340659
768,1.7692307692307692
769,1.7613675213675213
770,1.7535042735042734
771,1.7613675213675213
772,1.7512576312576311
773,1.7535042735042734
774,1.757997557997558
775,1.7658608058608058
776,1.7546275946275949
777,1.7366544566544566
778,1.7624908424908423
779,1.756874236874237
780,1.7456410256410255
781,1.756874236874237
782,1.756874236874237
783,1.7546275946275949
784,1.7287912087912087
785,1.737777777777778
786,1.757997557997558
787,1.7422710622710622
788,1.7422710622710622
789,1.7512576312576311
790,1.7535042735042734
791,1.7726007326007327
792,1.7703540903540904
793,1.795067155067155
794,1.7815873015873016
795,1.7703540903540904
796,1.7782173382173383
797,1.779340659340659
798,1.7905738705738703
799,1.7894505494505497
800,1.779340659340659
801,1.795067155067155
802,1.8063003663003665
803,1.7905738705738703
804,1.8018070818070813
805,1.8063003663003665
806,1.8152869352869352
807,1.795067155067155
808,1.7973137973137974
809,1.7827106227106226
810,1.7916971916971918
811,1.811916971916972
812,1.7973137973137974
813,1.8018070818070813
814,1.7973137973137974
815,1.777094017094017
816,1.7512576312576311
817,1.7591208791208792
818,1.7748473748473748
819,1.779340659340659
820,1.7591208791208792
821,1.7512576312576311
822,1.7658608058608058
823,1.756874236874237
824,1.7287912087912087
825,1.7456410256410255
826,1.7535042735042734
827,1.7366544566544566
828,1.731037851037851
829,1.7478876678876678
830,1.7456410256410255
831,1.738901098901099
832,1.74002442002442
833,1.7748473748473748
834,1.775970695970696
835,1.768107448107448
836,1.749010989010989
837,1.7467643467643468
838,1.749010989010989
839,1.756874236874237
840,1.7658608058608058
841,1.7546275946275949
842,1.7624908424908423
843,1.7512576312576311
844,1.7669841269841269
845,1.768107448107448
846,1.7714774114774114
847,1.768107448107448
848,1.7748473748473748
849,1.7984371184371184
850,1.7815873015873016
851,1.7804639804639804
852,1.7827106227106226
853,1.7714774114774114
854,1.777094017094017
855,1.7860805860805862
856,1.7782173382173383
857,1.800683760683761
858,1.7984371184371184
859,1.796190476190476
860,1.795067155067155
861,1.8063003663003665
862,1.811916971916972
863,1.823150183150183
864,1.8377533577533576
865,1.868083028083028
866,1.869206349206349
867,1.8703296703296703
868,1.843369963369964
869,1.8332600732600728
870,1.800683760683761
871,1.7860805860805862
872,1.775970695970696
873,1.777094017094017
874,1.7344078144078143
875,1.7265445665445665
876,1.7366544566544566
877,1.7265445665445665
878,1.7287912087912087
879,1.756874236874237
880,1.7456410256410255
881,1.7456410256410255
882,1.7254212454212454
883,1.6905982905982906
884,1.757997557997558
885,2.0017582417582416
886,2.34998778998779
887,2.776849816849817
888,2.753260073260073
889,2.276971916971917
890,1.7546275946275949
891,1.472673992673993
892,1.3682051282051282
893,1.3277655677655678
894,1.258119658119658
895,1.2053235653235652
896,1.245763125763126
897,1.338998778998779
898,1.4445909645909647
899,1.5557997557997558
900,1.6052258852258852
901,1.6434188034188033
902,1.6546520146520147
903,1.6647619047619049
904,1.684981684981685
905,1.686105006105006
906,1.6613919413919414
907,1.656898656898657
908,1.6703785103785105
909,1.702954822954823
910,1.684981684981685
911,1.6905982905982906
912,1.713064713064713
913,1.710818070818071
914,1.704078144078144
915,1.7231746031746031
916,1.7254212454212454
917,1.7523809523809524
918,1.7344078144078143
919,1.749010989010989
920,1.7546275946275949
921,1.7478876678876678
922,1.7355311355311356
923,1.7422710622710622
924,1.7523809523809524
925,1.756874236874237
926,1.7332844932844933
927,1.7355311355311356
928,1.7254212454212454
929,1.7265445665445665
930,1.7512576312576311
931,1.7523809523809524
932,1.7523809523809524
933,1.7276678876678877
934,1.7535042735042734
935,1.7321611721611725
936,1.7265445665445665
937,1.7478876678876678
938,1.756874236874237
939,1.7478876678876678
940,1.7467643467643468
941,1.7422710622710622
942,1.7523809523809524
943,1.7456410256410255
944,1.7276678876678877
945,1.7523809523809524
946,1.7276678876678877
947,1.7254212454212454
948,1.749010989010989
949,1.7276678876678877
950,1.7265445665445665
951,1.731037851037851
952,1.7265445665445665
953,1.7512576312576311
954,1.7433943833943837
955,1.7456410256410255
956,1.7355311355311356
957,1.7512576312576311
958,1.7456410256410255
959,1.7411477411477412
960,1.72991452991453
961,1.7557509157509157
962,1.7535042735042734
963,1.7411477411477412
964,1.75013431013431
965,1.7456410256410255
966,1.7355311355311356
967,1.731037851037851
968,1.7287912087912087
969,1.7344078144078143
970,1.7512576312576311
971,1.7254212454212454
972,1.722051282051282
973,1.704078144078144
974,1.7096947496947497
975,1.713064713064713
976,1.7164346764346765
977,1.7153113553113553
978,1.7007081807081808
979,1.7175579975579975
980,1.7231746031746031
981,1.7074481074481074
982,1.7231746031746031
983,1.7467643467643468
984,1.7467643467643468
985,1.7332844932844933
986,1.775970695970696
987,1.842246642246642
988,1.9366056166056167
989,2.018608058608059
990,2.066910866910867
991,2.1006105006105007
992,2.086007326007326
993,2.032087912087912
994,1.964688644688645
995,1.8871794871794871
996,1.6243223443223442
997,1.2963125763125762
998,1.0862515262515262
999,1.0244688644688644
1000,1.0851282051282052
1001,1.1514041514041513
1002,1.2985592185592183
1003,1.44009768009768
1004,1.5041269841269842
1005,1.474920634920635
1006,1.4412210012210012
1007,1.3603418803418803
1008,1.356971916971917
1009,1.3693284493284494
1010,1.4693040293040294
1011,1.5445665445665446
1012,1.6703785103785105
1013,1.756874236874237
1014,1.7737240537240535
1015,1.800683760683761
1016,1.7804639804639804
1017,1.7467643467643468
1018,1.7602442002442005
1019,1.7872039072039072
1020,1.775970695970696
1021,1.813040293040293
1022,1.914139194139194
1023,1.9613186813186807
1024,1.957948717948718
1025,1.9388522588522588
1026,1.9433455433455435
1027,1.9332356532356527
1028,1.915262515262516
1029,1.9006593406593408
1030,1.8736996336996337
1031,1.855726495726496
1032,1.842246642246642
1033,1.8523565323565323
1034,1.868083028083028
1035,1.877069597069597
1036,1.8927960927960927
1037,1.8927960927960927
1038,1.895042735042735
1039,1.911892551892552
1040,1.9085225885225885
1041,1.9186324786324789
1042,1.9309890109890109
1043,1.955702075702076
1044,1.9613186813186807
1045,1.977045177045177
1046,1.9804151404151404
1047,1.977045177045177
1048,1.9568253968253968
1049,1.9624420024420024
1050,1.983785103785104
1051,1.993894993894994
1052,1.9747985347985348
1053,1.983785103785104
1054,1.9736752136752136
1055,1.959072039072039
1056,1.9377289377289373
1057,1.8984126984126983
1058,1.8961660561660565
1059,1.8871794871794871
1060,1.8568498168498169
1061,1.848986568986569
1062,1.8265201465201464
1063,1.796190476190476
1064,1.7658608058608058
1065,1.7467643467643468
1066,1.731037851037851
1067,1.7355311355311356
1068,1.7535042735042734
1069,1.7445177045177045
1070,1.7254212454212454
1071,1.7478876678876678
1072,1.7344078144078143
1073,1.7344078144078143
1074,1.7287912087912087
1075,1.7411477411477412
1076,1.7332844932844933
1077,1.7535042735042734
1078,1.7276678876678877
1079,1.756874236874237
1080,1.7366544566544566
1081,1.7141880341880342
1082,1.7332844932844933
1083,1.7467643467643468
1084,1.7355311355311356
1085,1.72991452991453
1086,1.731037851037851
1087,1.7456410256410255
1088,1.7344078144078143
1089,1.7344078144078143
1090,1.75013431013431
1091,1.7276678876678877
1092,1.756874236874237
1093,1.7557509157509157
1094,1.72991452991453
1095,1.7422710622710622
1096,1.72991452991453
1097,1.7276678876678877
1098,1.7321611721611725
1099,1.7209279609279609
1100,1.7085714285714286
1101,1.7355311355311356
1102,1.7254212454212454
1103,1.7231746031746031
1104,1.6973382173382174
1105,1.7085714285714286
1106,1.7096947496947497
1107,1.710818070818071
1108,1.7153113553113553
1109,1.7085714285714286
1110,1.705201465201465
1111,1.7164346764346765
1112,1.7164346764346765
1113,1.737777777777778
1114,1.7344078144078143
1115,1.711941391941392
1116,1.722051282051282
1117,1.722051282051282
1118,1.7344078144078143
1119,1.7063247863247863
1120,1.7096947496947497
1121,1.7242979242979244
1122,1.7411477411477412
1123,1.7321611721611725
1124,1.7175579975579975
1125,1.7254212454212454
1126,1.7456410256410255
1127,1.75013431013431
1128,1.7445177045177045
1129,1.7445177045177045
1130,1.7433943833943837
1131,1.7276678876678877
1132,1.7276678876678877
1133,1.737777777777778
1134,1.7265445665445665
1135,1.7535042735042734
1136,1.7512576312576311
1137,1.7535042735042734
1138,1.7546275946275949
1139,1.7287912087912087
1140,1.749010989010989
1141,1.7287912087912087
1142,1.7422710622710622
1143,1.7422710622710622
1144,1.7557509157509157
1145,1.7512576312576311
1146,1.72991452991453
1147,1.7557509157509157
1148,1.7523809523809524
1149,1.7321611721611725
1150,1.7321611721611725
1151,1.737777777777778
1152,1.7321611721611725
1153,1.7276678876678877
1154,1.7433943833943837
1155,1.7445177045177045
1156,1.7445177045177045
1157,1.7512576312576311
1158,1.7321611721611725
1159,1.749010989010989
1160,1.7287912087912087
1161,1.7557509157509157
1162,1.7467643467643468
1163,1.7433943833943837
1164,1.7512576312576311
1165,1.7456410256410255
1166,1.7344078144078143
1167,1.731037851037851
1168,1.7265445665445665
1169,1.7344078144078143
1170,1.7209279609279609
1171,1.7287912087912087
1172,1.75013431013431
1173,1.7523809523809524
1174,1.7366544566544566
1175,1.7332844932844933
1176,1.7321611721611725
1177,1.7535042735042734
1178,1.7433943833943837
1179,1.7523809523809524
1180,1.7546275946275949
1181,1.75013431013431
1182,1.7332844932844933
1183,1.7265445665445665
1184,1.757997557997558
1185,1.72991452991453
1186,1.756874236874237
1187,1.756874236874237
1188,1.7355311355311356
1189,1.7467643467643468
1190,1.7344078144078143
1191,1.7321611721611725
1192,1.72991452991453
1193,1.7557509157509157
1194,1.7355311355311356
1195,1.7557509157509157
1196,1.7276678876678877
1197,1.7321611721611725
1198,1.7535042735042734
1199,1.7512576312576311
1200,1.7332844932844933
1201,1.75013431013431
1202,1.7254212454212454
1203,1.7265445665445665
1204,1.7512576312576311
1205,1.7523809523809524
1206,1.737777777777778
1207,1.756874236874237
1208,1.7287912087912087
1209,1.731037851037851
1210,1.7523809523809524
1211,1.7366544566544566
1212,1.731037851037851
1213,1.7321611721611725
1214,1.7366544566544566
1215,1.7332844932844933
1216,1.7433943833943837
1217,1.7287912087912087
1218,1.7433943833943837
1219,1.7332844932844933
1220,1.7411477411477412
1221,1.7164346764346765
1222,1.7096947496947497
1223,1.7141880341880342
1224,1.7254212454212454
1225,1.7276678876678877
1226,1.7276678876678877
1227,1.7355311355311356
1228,1.7445177045177045
1229,1.7231746031746031
1230,1.7321611721611725
1231,1.731037851037851
1232,1.7512576312576311
1233,1.737777777777778
1234,1.7344078144078143
1235,1.7366544566544566
1236,1.737777777777778
1237,1.7467643467643468
1238,1.7344078144078143
1239,1.7523809523809524
1240,1.7265445665445665
1241,1.7523809523809524
1242,1.757997557997558
1243,1.7344078144078143
1244,1.7422710622710622
1245,1.737777777777778
1246,1.7355311355311356
1247,1.7411477411477412
1248,1.7366544566544566
1249,1.7535042735042734
1250,1.7512576312576311
1251,1.7456410256410255
1252,1.75013431013431
1253,1.7411477411477412
1254,1.7422710622710622
1255,1.7523809523809524
1256,1.74002442002442
1257,1.731037851037851
1258,1.72991452991453
1259,1.7422710622710622
1260,1.7276678876678877
1261,1.7535042735042734
1262,1.7512576312576311
1263,1.7366544566544566
1264,1.7546275946275949
1265,1.7332844932844933
1266,1.7557509157509157
1267,1.7344078144078143
1268,1.7512576312576311
1269,1.757997557997558
1270,1.757997557997558
1271,1.7344078144078143
1272,1.7344078144078143
1273,1.7669841269841269
1274,1.7782173382173383
1275,1.8164102564102564
1276,1.8287667887667889
1277,1.8355067155067155
1278,1.8624664224664225
1279,1.8781929181929184
1280,1.8804395604395605
1281,1.868083028083028
1282,1.8512332112332115
1283,1.8590964590964592
1284,1.8377533577533576
1285,1.822026862026862
1286,1.800683760683761
1287,1.7748473748473748
1288,1.74002442002442
1289,1.7535042735042734
1290,1.7546275946275949
1291,1.7366544566544566
1292,1.756874236874237
1293,1.7254212454212454
1294,1.72991452991453
1295,1.75013431013431
1296,1.7265445665445665
1297,1.7332844932844933
1298,1.7074481074481074
1299,1.6816117216117217
1300,1.683858363858364
1301,1.8175335775335768
1302,2.114090354090354
1303,2.594871794871795
1304,2.883565323565324
1305,2.651037851037851
1306,2.084884004884005
1307,1.711941391941392
1308,1.4412210012210012
1309,1.3457387057387058
1310,1.2828327228327228
1311,1.2592429792429791
1312,1.2423931623931623
1313,1.337875457875458
1314,1.4636874236874238
1315,1.5704029304029303
1316,1.6333089133089134
1317,1.6445421245421246
1318,1.6422954822954825
1319,1.6467887667887668
1320,1.6265689865689863
1321,1.620952380952381
1322,1.61982905982906
1323,1.6276923076923078
1324,1.6456654456654456
1325,1.6512820512820512
1326,1.6546520146520147
1327,1.6625152625152626
1328,1.6512820512820512
1329,1.6613919413919414
1330,1.7007081807081808
1331,1.7063247863247863
1332,1.6962148962148962
1333,1.6917216117216116
1334,1.6827350427350427
1335,1.6872283272283273
1336,1.6804884004884004
1337,1.6748717948717948
1338,1.6827350427350427
1339,1.6636385836385836
1340,1.6647619047619049
1341,1.6894749694749696
1342,1.702954822954823
1343,1.702954822954823
1344,1.6647619047619049
1345,1.6703785103785105
1346,1.6950915750915752
1347,1.7018315018315018
1348,1.7153113553113553
1349,1.7063247863247863
1350,1.7287912087912087
1351,1.7175579975579975
1352,1.713064713064713
1353,1.7063247863247863
1354,1.710818070818071
1355,1.711941391941392
1356,1.6883516483516483
1357,1.6894749694749696
1358,1.6917216117216116
1359,1.6962148962148962
1360,1.6681318681318682
1361,1.6748717948717948
1362,1.6703785103785105
1363,1.686105006105006
1364,1.6692551892551892
1365,1.6715018315018315
1366,1.6950915750915752
1367,1.6827350427350427
1368,1.686105006105006
1369,1.6748717948717948
1370,1.686105006105006
1371,1.6917216117216116
1372,1.7141880341880342
1373,1.7074481074481074
1374,1.731037851037851
1375,1.7321611721611725
1376,1.7478876678876678
1377,1.7804639804639804
1378,1.7939438339438338
1379,1.7860805860805862
1380,1.7804639804639804
1381,1.796190476190476
1382,1.802930402930403
1383,1.7984371184371184
1384,1.7872039072039072
1385,1.779340659340659
1386,1.779340659340659
1387,1.7602442002442005
1388,1.7658608058608058
1389,1.7804639804639804
1390,1.7782173382173383
1391,1.7591208791208792
1392,1.7557509157509157
1393,1.7726007326007327
1394,1.7591208791208792
1395,1.7726007326007327
1396,1.7613675213675213
1397,1.779340659340659
1398,1.7748473748473748
1399,1.775970695970696
1400,1.7714774114774114
1401,1.7995604395604397
1402,1.800683760683761
1403,1.800683760683761
1404,1.7984371184371184
1405,1.7804639804639804
1406,1.7905738705738703
1407,1.7737240537240535
1408,1.777094017094017
1409,1.800683760683761
1410,1.7872039072039072
1411,1.7815873015873016
1412,1.7692307692307692
1413,1.777094017094017
1414,1.7658608058608058
1415,1.757997557997558
1416,1.7804639804639804
1417,1.7883272283272282
1418,1.802930402930403
1419,1.802930402930403
1420,1.775970695970696
1421,1.7872039072039072
1422,1.7804639804639804
1423,1.777094017094017
1424,1.7726007326007327
1425,1.7613675213675213
1426,1.7669841269841269
1427,1.775970695970696
1428,1.777094017094017
1429,1.7872039072039072
1430,1.7804639804639804
1431,1.7613675213675213
1432,1.7703540903540904
1433,1.7905738705738703
1434,1.7703540903540904
1435,1.7714774114774114
1436,1.7703540903540904
1437,1.7613675213675213
1438,1.7782173382173383
1439,1.7591208791208792
1440,1.7726007326007327
1441,1.7624908424908423
1442,1.7703540903540904
1443,1.7467643467643468
1444,1.7546275946275949
1445,1.7456410256410255
1446,1.738901098901099
1447,1.7535042735042734
1448,1.7478876678876678
1449,1.757997557997558
1450,1.737777777777778
1451,1.7613675213675213
1452,1.7613675213675213
1453,1.768107448107448
1454,1.768107448107448
1455,1.7714774114774114
1456,1.7658608058608058
1457,1.7714774114774114
1458,1.7782173382173383
1459,1.7984371184371184
1460,1.7939438339438338
1461,1.777094017094017
1462,1.7512576312576311
1463,1.7535042735042734
1464,1.7613675213675213
1465,1.7613675213675213
1466,1.7748473748473748
1467,1.7669841269841269
1468,1.7703540903540904
1469,1.7658608058608058
1470,1.7782173382173383
1471,1.7714774114774114
1472,1.7872039072039072
1473,1.7737240537240535
1474,1.7658608058608058
1475,1.7928205128205128
1476,1.777094017094017
1477,1.7714774114774114
1478,1.7703540903540904
1479,1.7748473748473748
1480,1.796190476190476
1481,1.7894505494505497
1482,1.7748473748473748
1483,1.7737240537240535
1484,1.7894505494505497
1485,1.7872039072039072
1486,1.7827106227106226
1487,1.7804639804639804
1488,1.7748473748473748
1489,1.7624908424908423
1490,1.7591208791208792
1491,1.7344078144078143
1492,1.75013431013431
1493,1.7512576312576311
1494,1.7714774114774114
1495,1.7815873015873016
1496,1.7815873015873016
1497,1.7916971916971918
1498,1.7894505494505497
1499,1.832136752136752
1500,1.86021978021978
1501,1.841123321123321
1502,1.7973137973137974
1503,1.7872039072039072
1504,1.800683760683761
1505,1.7883272283272282
1506,1.7726007326007327
1507,1.7782173382173383
1508,1.7557509157509157
1509,1.737777777777778
1510,1.7422710622710622
1511,1.7478876678876678
1512,1.7523809523809524
1513,1.7546275946275949
1514,1.7344078144078143
1515,1.7467643467643468
1516,1.7366544566544566
1517,1.737777777777778
1518,1.7422710622710622
1519,1.7231746031746031
1520,1.684981684981685
1521,1.7422710622710622
1522,1.9792918192918192
1523,2.3645909645909646
1524,2.779096459096459
1525,2.81953601953602
1526,2.3376312576312577
1527,1.843369963369964
1528,1.5535531135531135
1529,1.4243711843711844
1530,1.3333821733821734
1531,1.2805860805860805
1532,1.2626129426129429
1533,1.2985592185592183
1534,1.42998778998779
1535,1.541196581196581
1536,1.5906227106227109
1537,1.631062271062271
1538,1.656898656898657
1539,1.6827350427350427
1540,1.6883516483516483
1541,1.7007081807081808
1542,1.713064713064713
1543,1.7153113553113553
1544,1.6962148962148962
1545,1.7063247863247863
1546,1.6928449328449329
1547,1.7175579975579975
1548,1.7265445665445665
1549,1.722051282051282
1550,1.6950915750915752
1551,1.7175579975579975
1552,1.7411477411477412
1553,1.7355311355311356
1554,1.7535042735042734
1555,1.7265445665445665
1556,1.7523809523809524
1557,1.7557509157509157
1558,1.757997557997558
1559,1.757997557997558
1560,1.756874236874237
1561,1.7411477411477412
1562,1.7523809523809524
1563,1.7815873015873016
1564,1.7782173382173383
1565,1.7703540903540904
1566,1.7782173382173383
1567,1.756874236874237
1568,1.7546275946275949
1569,1.737777777777778
1570,1.7523809523809524
1571,1.7726007326007327
1572,1.7613675213675213
1573,1.7535042735042734
1574,1.756874236874237
1575,1.7422710622710622
1576,1.7535042735042734
1577,1.7478876678876678
1578,1.7613675213675213
1579,1.7467643467643468
1580,1.7344078144078143
1581,1.7523809523809524
1582,1.7467643467643468
1583,1.7287912087912087
1584,1.7254212454212454
1585,1.7411477411477412
1586,1.7445177045177045
1587,1.7411477411477412
1588,1.7164346764346765
1589,1.7422710622710622
1590,1.7344078144078143
1591,1.7422710622710622
1592,1.7456410256410255
1593,1.7265445665445665
1594,1.7478876678876678
1595,1.7602442002442005
1596,1.7714774114774114
1597,1.7726007326007327
1598,1.768107448107448
1599,1.7726007326007327
1600,1.7815873015873016
1601,1.7939438339438338
1602,1.7804639804639804
1603,1.7602442002442005
1604,1.7613675213675213
1605,1.7669841269841269
1606,1.7860805860805862
1607,1.7658608058608058
1608,1.7591208791208792
1609,1.7714774114774114
1610,1.7714774114774114
1611,1.7748473748473748
1612,1.7624908424908423
1613,1.7602442002442005
1614,1.749010989010989
1615,1.7546275946275949
1616,1.7411477411477412
1617,1.737777777777778
1618,1.737777777777778
1619,1.749010989010989
1620,1.756874236874237
1621,1.768107448107448
1622,1.7883272283272282
1623,1.7872039072039072
1624,1.7827106227106226
1625,1.7973137973137974
1626,1.7894505494505497
1627,1.7928205128205128
1628,1.796190476190476
1629,1.7973137973137974
1630,1.7748473748473748
1631,1.7624908424908423
1632,1.7422710622710622
1633,1.7624908424908423
1634,1.7591208791208792
1635,1.7714774114774114
1636,1.7782173382173383
1637,1.7860805860805862
1638,1.7624908424908423
1639,1.777094017094017
1640,1.7804639804639804
1641,1.7973137973137974
1642,1.8355067155067155
1643,1.8377533577533576
1644,1.8366300366300363
1645,1.8534798534798536
1646,1.868083028083028
1647,1.891672771672772
1648,1.871452991452992
1649,1.8512332112332115
1650,1.832136752136752
1651,1.8175335775335768
1652,1.796190476190476
1653,1.800683760683761
1654,1.7973137973137974
1655,1.7658608058608058
1656,1.7613675213675213
1657,1.737777777777778
1658,1.737777777777778
1659,1.7344078144078143
1660,1.7366544566544566
1661,1.7332844932844933
1662,1.7422710622710622
1663,1.75013431013431
1664,1.7287912087912087
1665,1.7332844932844933
1666,1.7411477411477412
1667,1.7063247863247863
1668,1.6894749694749696
1669,1.757997557997558
1670,2.020854700854701
1671,2.4095238095238094
1672,2.7566300366300367
1673,2.628571428571429
1674,2.1017338217338217
1675,1.6737484737484738
1676,1.4603174603174602
1677,1.383931623931624
1678,1.3266422466422467
1679,1.245763125763126
1680,1.2143101343101343
1681,1.24014652014652
1682,1.3491086691086691
1683,1.4591941391941392
1684,1.5726495726495726
1685,1.64004884004884
1686,1.6524053724053724
1687,1.6422954822954825
1688,1.6546520146520147
1689,1.7063247863247863
1690,1.710818070818071
1691,1.7175579975579975
1692,1.7141880341880342
1693,1.711941391941392
1694,1.72991452991453
1695,1.737777777777778
1696,1.7366544566544566
1697,1.7411477411477412
1698,1.7287912087912087
1699,1.7254212454212454
1700,1.7209279609279609
1701,1.7355311355311356
1702,1.7456410256410255
1703,1.756874236874237
1704,1.7265445665445665
1705,1.75013431013431
1706,1.75013431013431
1707,1.7456410256410255
1708,1.7366544566544566
1709,1.757997557997558
1710,1.738901098901099
1711,1.7467643467643468
1712,1.7287912087912087
1713,1.7254212454212454
1714,1.7456410256410255
1715,1.7535042735042734
1716,1.72991452991453
1717,1.7332844932844933
1718,1.7321611721611725
1719,1.7355311355311356
1720,1.7456410256410255
1721,1.749010989010989
1722,1.7344078144078143
1723,1.7344078144078143
1724,1.7467643467643468
1725,1.7624908424908423
1726,1.738901098901099
1727,1.7658608058608058
1728,1.7782173382173383
1729,1.7748473748473748
1730,1.7602442002442005
1731,1.7422710622710622
1732,1.7535042735042734
1733,1.7557509157509157
1734,1.737777777777778
1735,1.7546275946275949
1736,1.7456410256410255
1737,1.7523809523809524
1738,1.7535042735042734
1739,1.7669841269841269
1740,1.7714774114774114
1741,1.7658608058608058
1742,1.7512576312576311
1743,1.7523809523809524
1744,1.7669841269841269
1745,1.7613675213675213
1746,1.74002442002442
1747,1.7366544566544566
1748,1.7366544566544566
1749,1.738901098901099
1750,1.7535042735042734
1751,1.7265445665445665
1752,1.7153113553113553
1753,1.7265445665445665
1754,1.7276678876678877
1755,1.72991452991453
1756,1.7085714285714286
1757,1.7096947496947497
1758,1.705201465201465
1759,1.6973382173382174
1760,1.710818070818071
1761,1.7254212454212454
1762,1.7276678876678877
1763,1.7175579975579975
1764,1.722051282051282
1765,1.731037851037851
1766,1.737777777777778
1767,1.749010989010989
1768,1.7478876678876678
1769,1.756874236874237
1770,1.7344078144078143
1771,1.7276678876678877
1772,1.7332844932844933
1773,1.757997557997558
1774,1.7254212454212454
1775,1.7344078144078143
1776,1.74002442002442
1777,1.7355311355311356
1778,1.738901098901099
1779,1.7276678876678877
1780,1.7411477411477412
1781,1.7422710622710622
1782,1.7254212454212454
1783,1.7546275946275949
1784,1.7512576312576311
1785,1.7557509157509157
1786,1.7467643467643468
1787,1.7321611721611725
1788,1.72991452991453
1789,1.72991452991453
1790,1.7265445665445665
1791,1.749010989010989
1792,1.7254212454212454
1793,1.7344078144078143
1794,1.738901098901099
1795,1.757997557997558
1796,1.7254212454212454
1797,1.731037851037851
1798,1.7321611721611725
1799,1.7523809523809524
1800,1.7411477411477412
1801,1.7265445665445665
1802,1.7332844932844933
1803,1.756874236874237
1804,1.7602442002442005
1805,1.7422710622710622
1806,1.737777777777778
1807,1.7523809523809524
1808,1.7422710622710622
1809,1.7602442002442005
1810,1.7456410256410255
1811,1.757997557997558
1812,1.737777777777778
1813,1.757997557997558
1814,1.7276678876678877
1815,1.7456410256410255
1816,1.7433943833943837
1817,1.7254212454212454
1818,1.737777777777778
1819,1.7321611721611725
1820,1.7276678876678877
1821,1.7321611721611725
1822,1.7287912087912087
1823,1.7445177045177045
1824,1.7332844932844933
1825,1.7344078144078143
1826,1.7467643467643468
1827,1.7276678876678877
1828,1.7366544566544566
1829,1.7265445665445665
1830,1.7254212454212454
1831,1.7231746031746031
1832,1.7231746031746031
1833,1.7456410256410255
1834,1.7355311355311356
1835,1.7366544566544566
1836,1.7332844932844933
1837,1.7254212454212454
1838,1.7366544566544566
1839,1.749010989010989
1840,1.7467643467643468
1841,1.7287912087912087
1842,1.7478876678876678
1843,1.7546275946275949
1844,1.7613675213675213
1845,1.72991452991453
1846,1.7287912087912087
1847,1.7422710622710622
1848,1.749010989010989
1849,1.72991452991453
1850,1.7276678876678877
1851,1.757997557997558
1852,1.7456410256410255
1853,1.75013431013431
1854,1.7535042735042734
1855,1.7624908424908423
1856,1.7411477411477412
1857,1.7422710622710622
1858,1.7602442002442005
1859,1.768107448107448
1860,1.749010989010989
1861,1.7321611721611725
1862,1.75013431013431
1863,1.7512576312576311
1864,1.7456410256410255
1865,1.7321611721611725
1866,1.737777777777778
1867,1.7287912087912087
1868,1.7265445665445665
1869,1.7265445665445665
1870,1.7422710622710622
1871,1.7602442002442005
1872,1.7512576312576311
1873,1.7355311355311356
1874,1.74002442002442
1875,1.74002442002442
1876,1.7456410256410255
1877,1.7478876678876678
1878,1.7254212454212454
1879,1.7535042735042734
1880,1.7557509157509157
1881,1.756874236874237
1882,1.7344078144078143
1883,1.7478876678876678
1884,1.7231746031746031
1885,1.7287912087912087
1886,1.7276678876678877
1887,1.710818070818071
1888,1.7096947496947497
1889,1.7018315018315018
1890,1.75013431013431
1891,1.7332844932844933
1892,1.7523809523809524
1893,1.7591208791208792
1894,1.7714774114774114
1895,1.7737240537240535
1896,1.775970695970696
1897,1.7894505494505497
1898,1.795067155067155
1899,1.7804639804639804
1900,1.7726007326007327
1901,1.7557509157509157
1902,1.7714774114774114
1903,1.7523809523809524
1904,1.7422710622710622
1905,1.7422710622710622
1906,1.7254212454212454
1907,1.7153113553113553
1908,1.6962148962148962
1909,1.705201465201465
1910,1.7096947496947497
1911,1.6950915750915752
1912,1.710818070818071
1913,1.7007081807081808
1914,1.702954822954823
1915,1.6715018315018315
1916,1.6355555555555557
1917,1.6546520146520147
1918,1.843369963369964
1919,2.205079365079365
1920,2.640927960927961
1921,2.875702075702076
1922,2.530842490842491
1923,1.922002442002442
1924,1.5726495726495726
1925,1.4063980463980463
1926,1.3356288156288156
1927,1.24014652014652
1928,1.1963369963369963
1929,1.2143101343101343
1930,1.337875457875458
1931,1.4603174603174602
1932,1.5445665445665446
1933,1.6029792429792429
1934,1.6231990231990232
1935,1.6097191697191695
1936,1.6243223443223442
1937,1.6456654456654456
1938,1.64004884004884
1939,1.6490354090354091
1940,1.64004884004884
1941,1.647912087912088
1942,1.6636385836385836
1943,1.667008547008547
1944,1.6692551892551892
1945,1.684981684981685
1946,1.6872283272283273
1947,1.693968253968254
1948,1.7063247863247863
1949,1.7231746031746031
1950,1.7433943833943837
1951,1.7355311355311356
1952,1.737777777777778
1953,1.7433943833943837
1954,1.7344078144078143
1955,1.7523809523809524
1956,1.7265445665445665
1957,1.74002442002442
1958,1.7265445665445665
1959,1.7254212454212454
1960,1.7523809523809524
1961,1.7512576312576311
1962,1.737777777777778
1963,1.7355311355311356
1964,1.7332844932844933
1965,1.756874236874237
1966,1.731037851037851
1967,1.757997557997558
1968,1.7366544566544566
1969,1.7366544566544566
1970,1.7321611721611725
1971,1.737777777777778
1972,1.737777777777778
1973,1.72991452991453
1974,1.731037851037851
1975,1.72991452991453
1976,1.7445177045177045
1977,1.7276678876678877
1978,1.7254212454212454
1979,1.7287912087912087
1980,1.7332844932844933
1981,1.7535042735042734
1982,1.737777777777778
1983,1.749010989010989
1984,1.7265445665445665
1985,1.7411477411477412
1986,1.7344078144078143
1987,1.7366544566544566
1988,1.7366544566544566
1989,1.7422710622710622
1990,1.756874236874237
1991,1.72991452991453
1992,1.74002442002442
1993,1.7591208791208792
1994,1.7658608058608058
1995,1.7422710622710622
1996,1.7478876678876678
1997,1.75013431013431
1998,1.7602442002442005
1999,1.7557509157509157
