Index,II
0,1.7512576312576311
1,1.779340659340659
2,1.7939438339438338
3,1.783833943833944
4,1.7782173382173383
5,1.7613675213675213
6,1.7591208791208792
7,1.7624908424908423
8,1.7737240537240535
9,1.804053724053724
10,1.8355067155067155
11,1.8546031746031744
12,1.86021978021978
13,1.8568498168498169
14,1.8534798534798536
15,1.8523565323565323
16,1.832136752136752
17,1.8253968253968251
18,1.795067155067155
19,1.7782173382173383
20,1.7726007326007327
21,1.7546275946275949
22,1.757997557997558
23,1.74002442002442
24,1.7467643467643468
25,1.7512576312576311
26,1.779340659340659
27,1.783833943833944
28,1.749010989010989
29,1.7591208791208792
30,1.9332356532356527
31,2.4185103785103785
32,3.031843711843712
33,3.467692307692308
34,3.44971916971917
35,3.0576800976800977
36,2.48029304029304
37,2.051184371184372
38,1.8018070818070815
39,1.6962148962148962
40,1.6546520146520147
41,1.6231990231990232
42,1.6288156288156288
43,1.6288156288156288
44,1.6029792429792429
45,1.593992673992674
46,1.5894993894993894
47,1.565909645909646
48,1.5704029304029303
49,1.5602930402930404
50,1.5602930402930404
51,1.5793894993894997
52,1.5771428571428572
53,1.5805128205128205
54,1.5782661782661782
55,1.5827594627594628
56,1.5883760683760684
57,1.5973626373626373
58,1.5917460317460317
59,1.5973626373626373
60,1.6007326007326008
61,1.6265689865689863
62,1.6355555555555557
63,1.6411721611721612
64,1.6254456654456657
65,1.6187057387057386
66,1.631062271062271
67,1.6434188034188033
68,1.6512820512820512
69,1.6625152625152626
70,1.6894749694749696
71,1.7007081807081808
72,1.7085714285714286
73,1.7141880341880342
74,1.722051282051282
75,1.7287912087912087
76,1.749010989010989
77,1.7602442002442005
78,1.7804639804639804
79,1.7815873015873016
80,1.800683760683761
81,1.8152869352869352
82,1.8074236874236875
83,1.823150183150183
84,1.8063003663003665
85,1.7872039072039072
86,1.738901098901099
87,1.6984615384615385
88,1.6872283272283273
89,1.6816117216117217
90,1.684981684981685
91,1.6984615384615385
92,1.7018315018315018
93,1.6905982905982906
94,1.6883516483516483
95,1.678241758241758
96,1.677118437118437
97,1.675995115995116
98,1.6827350427350427
99,1.7007081807081808
100,1.7085714285714286
101,1.7096947496947497
102,1.6894749694749696
103,1.7007081807081808
104,1.6962148962148962
105,1.6995848595848595
106,1.6804884004884004
107,1.6950915750915752
108,1.7242979242979244
109,1.7175579975579975
110,1.7141880341880342
111,1.6973382173382174
112,1.6883516483516483
113,1.710818070818071
114,1.711941391941392
115,1.7198046398046398
116,1.7231746031746031
117,1.7231746031746031
118,1.7231746031746031
119,1.7366544566544566
120,1.737777777777778
121,1.72991452991453
122,1.7344078144078143
123,1.7344078144078143
124,1.7355311355311356
125,1.7265445665445665
126,1.7445177045177045
127,1.737777777777778
128,1.7411477411477412
129,1.738901098901099
130,1.7287912087912087
131,1.7523809523809524
132,1.7546275946275949
133,1.7692307692307692
134,1.7692307692307692
135,1.7512576312576311
136,1.7658608058608058
137,1.7523809523809524
138,1.7669841269841269
139,1.7512576312576311
140,1.75013431013431
141,1.7422710622710622
142,1.749010989010989
143,1.7602442002442005
144,1.7546275946275949
145,1.7602442002442005
146,1.757997557997558
147,1.7669841269841269
148,1.75013431013431
149,1.7546275946275949
150,1.756874236874237
151,1.7658608058608058
152,1.7636141636141636
153,1.7737240537240535
154,1.7647374847374848
155,1.7411477411477412
156,1.7175579975579975
157,1.7153113553113553
158,1.7007081807081808
159,1.722051282051282
160,1.7085714285714286
161,1.7647374847374848
162,1.8152869352869352
163,1.842246642246642
164,1.8736996336996337
165,1.8826862026862028
166,1.8624664224664225
167,1.8444932844932844
168,1.8265201465201464
169,1.8164102564102564
170,1.7748473748473748
171,1.75013431013431
172,1.7287912087912087
173,1.7254212454212454
174,1.7096947496947497
175,1.711941391941392
176,1.7254212454212454
177,1.7074481074481074
178,1.7175579975579975
179,1.7546275946275949
180,1.731037851037851
181,1.7366544566544566
182,1.8355067155067155
183,2.2252991452991453
184,2.8566056166056164
185,3.373333333333333
186,3.475555555555556
187,3.1138461538461537
188,2.561172161172161
189,2.0927472527472526
190,1.841123321123321
191,1.6973382173382174
192,1.6378021978021975
193,1.61982905982906
194,1.5883760683760684
195,1.5827594627594628
196,1.5524297924297925
197,1.5322100122100122
198,1.520976800976801
199,1.5254700854700856
200,1.549059829059829
201,1.5535531135531135
202,1.5434432234432234
203,1.5546764346764346
204,1.5434432234432234
205,1.5322100122100122
206,1.5333333333333334
207,1.541196581196581
208,1.5355799755799755
209,1.5501831501831502
210,1.5569230769230769
211,1.5827594627594628
212,1.6018559218559218
213,1.6074725274725274
214,1.6164590964590964
215,1.5951159951159952
216,1.5962393162393165
217,1.6175824175824176
218,1.6276923076923078
219,1.6490354090354091
220,1.6546520146520147
221,1.6647619047619049
222,1.6636385836385836
223,1.6647619047619049
224,1.686105006105006
225,1.7198046398046398
226,1.731037851037851
227,1.731037851037851
228,1.749010989010989
229,1.7478876678876678
230,1.7703540903540904
231,1.775970695970696
232,1.8096703296703296
233,1.8253968253968251
234,1.8107936507936508
235,1.7636141636141636
236,1.75013431013431
237,1.7478876678876678
238,1.7198046398046398
239,1.7231746031746031
240,1.72991452991453
241,1.6995848595848595
242,1.677118437118437
243,1.6703785103785105
244,1.659145299145299
245,1.6445421245421246
246,1.638925518925519
247,1.6378021978021975
248,1.6108424908424908
249,1.6288156288156288
250,1.6288156288156288
251,1.6557753357753358
252,1.6445421245421246
253,1.659145299145299
254,1.6636385836385836
255,1.64004884004884
256,1.636678876678877
257,1.638925518925519
258,1.6333089133089134
259,1.6434188034188033
260,1.6434188034188033
261,1.6703785103785105
262,1.6490354090354091
263,1.6557753357753358
264,1.675995115995116
265,1.6917216117216116
266,1.6883516483516483
267,1.6883516483516483
268,1.677118437118437
269,1.6748717948717948
270,1.667008547008547
271,1.693968253968254
272,1.683858363858364
273,1.6827350427350427
274,1.6692551892551892
275,1.6827350427350427
276,1.675995115995116
277,1.6950915750915752
278,1.6995848595848595
279,1.7198046398046398
280,1.7198046398046398
281,1.7153113553113553
282,1.7175579975579975
283,1.7096947496947497
284,1.7085714285714286
285,1.6995848595848595
286,1.7186813186813186
287,1.7355311355311356
288,1.7344078144078143
289,1.7355311355311356
290,1.7242979242979244
291,1.75013431013431
292,1.7557509157509157
293,1.7366544566544566
294,1.7366544566544566
295,1.7355311355311356
296,1.7074481074481074
297,1.7254212454212454
298,1.738901098901099
299,1.737777777777778
300,1.7276678876678877
301,1.7287912087912087
302,1.7063247863247863
303,1.7018315018315018
304,1.713064713064713
305,1.713064713064713
306,1.74002442002442
307,1.7726007326007327
308,1.7557509157509157
309,1.7198046398046398
310,1.711941391941392
311,1.7287912087912087
312,1.7265445665445665
313,1.7344078144078143
314,1.802930402930403
315,1.8433699633699636
316,1.8568498168498169
317,1.869206349206349
318,1.8781929181929184
319,1.866959706959707
320,1.832136752136752
321,1.7905738705738703
322,1.7748473748473748
323,1.7636141636141636
324,1.74002442002442
325,1.7321611721611725
326,1.7209279609279609
327,1.713064713064713
328,1.6950915750915752
329,1.7063247863247863
330,1.711941391941392
331,1.7186813186813186
332,1.675995115995116
333,1.6501587301587302
334,1.7276678876678877
335,2.0657875457875456
336,2.6645177045177046
337,3.231794871794872
338,3.4047863247863246
339,3.082393162393162
340,2.584761904761905
341,2.1028571428571428
342,1.784957264957265
343,1.6872283272283273
344,1.6288156288156288
345,1.6142124542124543
346,1.6097191697191695
347,1.586129426129426
348,1.586129426129426
349,1.574896214896215
350,1.585006105006105
351,1.5715262515262516
352,1.5704029304029303
353,1.5647863247863247
354,1.5782661782661782
355,1.5793894993894997
356,1.565909645909646
357,1.576019536019536
358,1.576019536019536
359,1.5591697191697191
360,1.5569230769230769
361,1.5692796092796093
362,1.5984859584859583
363,1.5951159951159952
364,1.5962393162393165
365,1.586129426129426
366,1.6063492063492064
367,1.6422954822954825
368,1.64004884004884
369,1.6265689865689863
370,1.620952380952381
371,1.6063492063492064
372,1.6265689865689863
373,1.6490354090354091
374,1.659145299145299
375,1.683858363858364
376,1.6984615384615385
377,1.6883516483516483
378,1.6984615384615385
379,1.7231746031746031
380,1.7692307692307692
381,1.795067155067155
382,1.768107448107448
383,1.7602442002442005
384,1.7928205128205128
385,1.7916971916971918
386,1.7726007326007327
387,1.7894505494505497
388,1.7658608058608058
389,1.7546275946275949
390,1.710818070818071
391,1.6973382173382174
392,1.6917216117216116
393,1.6636385836385836
394,1.678241758241758
395,1.6737484737484738
396,1.6804884004884004
397,1.6411721611721612
398,1.6422954822954825
399,1.647912087912088
400,1.6456654456654456
401,1.6411721611721612
402,1.61982905982906
403,1.6187057387057386
404,1.6142124542124543
405,1.615335775335775
406,1.6602686202686203
407,1.6501587301587302
408,1.6299389499389498
409,1.6445421245421246
410,1.6276923076923078
411,1.6299389499389498
412,1.659145299145299
413,1.6602686202686203
414,1.705201465201465
415,1.6883516483516483
416,1.6872283272283273
417,1.6928449328449329
418,1.656898656898657
419,1.6243223443223442
420,1.538949938949939
421,1.5254700854700856
422,1.5535531135531135
423,1.5805128205128205
424,1.5715262515262516
425,1.5647863247863247
426,1.5625396825396825
427,1.567032967032967
428,1.5984859584859583
429,1.593992673992674
430,1.611965811965812
431,1.6434188034188033
432,1.6490354090354091
433,1.620952380952381
434,1.632185592185592
435,1.8804395604395605
436,2.423003663003663
437,2.950964590964591
438,3.231794871794872
439,3.044200244200244
440,2.5903785103785104
441,2.127570207570208
442,1.7433943833943837
443,1.5951159951159952
444,1.576019536019536
445,1.6175824175824176
446,1.5883760683760684
447,1.5097435897435898
448,1.4704273504273504
449,1.472673992673993
450,1.4861538461538462
451,1.4356043956043956
452,1.4580708180708182
453,1.495140415140415
454,1.4704273504273504
455,1.42998778998779
456,1.4861538461538462
457,1.54007326007326
458,1.558046398046398
459,1.5423199023199023
460,1.4872771672771672
461,1.522100122100122
462,1.5771428571428572
463,1.5906227106227109
464,1.5827594627594628
465,1.547936507936508
466,1.5524297924297925
467,1.5793894993894997
468,1.6535286935286937
469,1.7085714285714286
470,1.6917216117216116
471,1.6726251526251523
472,1.7018315018315018
473,1.7141880341880342
474,1.756874236874237
475,1.7737240537240535
476,1.7624908424908423
477,1.7535042735042734
478,1.775970695970696
479,1.7804639804639804
480,1.784957264957265
481,1.7872039072039072
482,1.8141636141636144
483,1.8242735042735043
484,1.8051770451770448
485,1.7714774114774114
486,1.7602442002442005
487,1.722051282051282
488,1.7141880341880342
489,1.7096947496947497
490,1.722051282051282
491,1.7231746031746031
492,1.705201465201465
493,1.6917216117216116
494,1.711941391941392
495,1.7063247863247863
496,1.722051282051282
497,1.7198046398046398
498,1.7209279609279609
499,1.6917216117216116
500,1.7085714285714286
501,1.713064713064713
502,1.7186813186813186
503,1.7085714285714286
504,1.713064713064713
505,1.7018315018315018
506,1.7085714285714286
507,1.722051282051282
508,1.722051282051282
509,1.7445177045177045
510,1.7703540903540904
511,1.7591208791208792
512,1.7703540903540904
513,1.7827106227106226
514,1.7872039072039072
515,1.7737240537240535
516,1.7827106227106226
517,1.795067155067155
518,1.7916971916971918
519,1.804053724053724
520,1.8265201465201464
521,1.841123321123321
522,1.8074236874236875
523,1.8018070818070815
524,1.8107936507936508
525,1.8265201465201464
526,1.82989010989011
527,1.8613431013431012
528,1.8467399267399267
529,1.81978021978022
530,1.802930402930403
531,1.8253968253968251
532,1.8456166056166057
533,1.8590964590964592
534,1.857973137973138
535,1.848986568986569
536,1.8377533577533576
537,1.841123321123321
538,1.832136752136752
539,1.8343833943833945
540,1.8534798534798536
541,1.877069597069597
542,1.8781929181929184
543,1.8961660561660565
544,1.874822954822955
545,1.8736996336996337
546,1.8793162393162397
547,1.8826862026862028
548,1.881562881562881
549,1.8647130647130647
550,1.8714529914529916
551,1.8613431013431012
552,1.883809523809524
553,1.9062759462759464
554,1.9186324786324789
555,1.9107692307692308
556,1.875946275946276
557,1.86021978021978
558,1.85010989010989
559,1.877069597069597
560,1.9085225885225885
561,1.9197557997558
562,1.9231257631257632
563,1.9422222222222223
564,1.9343589743589744
565,1.914139194139194
566,1.8894261294261292
567,1.891672771672772
568,1.914139194139194
569,1.9107692307692308
570,1.9107692307692308
571,1.913015873015873
572,1.9017826617826616
573,1.902905982905983
574,1.9085225885225885
575,1.914139194139194
576,1.902905982905983
577,1.8927960927960927
578,1.8972893772893773
579,1.9017826617826616
580,1.875946275946276
581,1.8714529914529916
582,1.883809523809524
583,1.877069597069597
584,1.8804395604395605
585,1.8905494505494504
586,1.9006593406593408
587,1.895042735042735
588,1.9051526251526247
589,1.9444688644688648
590,1.9534554334554333
591,1.955702075702076
592,1.963565323565324
593,1.9826617826617827
594,1.9725518925518928
595,1.991648351648352
596,1.9545787545787543
597,1.904029304029304
598,1.8703296703296703
599,1.8871794871794871
600,1.8714529914529916
601,1.8647130647130647
602,1.8703296703296703
603,1.8736996336996337
604,1.883809523809524
605,1.875946275946276
606,1.877069597069597
607,1.8051770451770448
608,1.7714774114774114
609,1.9186324786324789
610,2.3724542124542123
611,3.0374603174603174
612,3.495775335775336
613,3.495775335775336
614,3.1778754578754578
615,2.63980463980464
616,2.175873015873016
617,1.9366056166056167
618,1.841123321123321
619,1.757997557997558
620,1.6737484737484738
621,1.6737484737484738
622,1.6535286935286937
623,1.659145299145299
624,1.684981684981685
625,1.6816117216117217
626,1.6434188034188033
627,1.636678876678877
628,1.6445421245421246
629,1.6737484737484738
630,1.6894749694749696
631,1.7153113553113553
632,1.7164346764346765
633,1.7186813186813186
634,1.6950915750915752
635,1.683858363858364
636,1.667008547008547
637,1.6905982905982906
638,1.710818070818071
639,1.7096947496947497
640,1.705201465201465
641,1.6905982905982906
642,1.6625152625152626
643,1.7085714285714286
644,1.7546275946275949
645,1.7995604395604397
646,1.784957264957265
647,1.7613675213675213
648,1.7613675213675213
649,1.7445177045177045
650,1.7669841269841269
651,1.7984371184371184
652,1.847863247863248
653,1.832136752136752
654,1.8085470085470088
655,1.784957264957265
656,1.75013431013431
657,1.796190476190476
658,1.857973137973138
659,1.902905982905983
660,1.9309890109890109
661,1.9624420024420024
662,1.9186324786324789
663,1.8613431013431012
664,1.841123321123321
665,1.868083028083028
666,1.842246642246642
667,1.8096703296703296
668,1.7748473748473748
669,1.7546275946275949
670,1.7456410256410255
671,1.749010989010989
672,1.74002442002442
673,1.6692551892551892
674,1.6231990231990232
675,1.684981684981685
676,1.6950915750915752
677,1.6827350427350427
678,1.6647619047619049
679,1.6962148962148962
680,1.683858363858364
681,1.631062271062271
682,1.6063492063492064
683,1.6467887667887668
684,1.6456654456654456
685,1.6164590964590964
686,1.6557753357753358
687,1.702954822954823
688,1.6748717948717948
689,1.710818070818071
690,1.6872283272283273
691,1.7063247863247863
692,1.737777777777778
693,1.7085714285714286
694,1.702954822954823
695,1.7591208791208792
696,1.904029304029304
697,2.089377289377289
698,2.124200244200244
699,1.9455921855921856
700,1.6905982905982906
701,1.4816605616605616
702,1.3693284493284494
703,1.2277899877899878
704,1.128937728937729
705,1.1087179487179488
706,1.0615384615384615
707,1.0615384615384615
708,1.192967032967033
709,1.422124542124542
710,1.683858363858364
711,1.811916971916972
712,1.8568498168498169
713,1.8568498168498169
714,1.8590964590964592
715,1.8534798534798536
716,1.85010989010989
717,1.857973137973138
718,1.9231257631257632
719,1.9500854700854704
720,1.964688644688645
721,1.9826617826617827
722,1.9815384615384612
723,2.006251526251526
724,2.0163614163614163
725,2.025347985347985
726,2.02984126984127
727,2.0275946275946275
728,2.0455677655677658
729,2.084884004884005
730,2.091623931623932
731,2.114090354090354
732,2.1623931623931623
733,2.194969474969475
734,2.215189255189255
735,2.2084493284493285
736,2.2365323565323565
737,2.303931623931624
738,2.3522344322344324
739,2.36009768009768
740,2.3544810744810745
741,2.347741147741148
742,2.3387545787545787
743,2.3567277167277165
744,2.2915750915750914
745,2.21968253968254
746,2.1309401709401707
747,2.0096214896214897
748,1.9163858363858364
749,1.8523565323565323
750,1.74002442002442
751,1.6490354090354091
752,1.6456654456654456
753,1.6243223443223442
754,1.5692796092796093
755,1.5569230769230769
756,1.5805128205128205
757,1.5906227106227109
758,1.5962393162393165
759,1.632185592185592
760,1.5726495726495726
761,1.5153601953601954
762,1.5153601953601954
763,1.5355799755799755
764,1.5367032967032968
765,1.5265934065934066
766,1.5344566544566545
767,1.546813186813187
768,1.5771428571428572
769,1.5962393162393165
770,1.5996092796092796
771,1.6029792429792429
772,1.5894993894993894
773,1.6018559218559218
774,1.5996092796092796
775,1.5456898656898657
776,1.5602930402930404
777,1.615335775335775
778,1.6703785103785105
779,1.713064713064713
780,1.7007081807081808
781,1.6793650793650794
782,1.6276923076923078
783,1.6018559218559218
784,1.5782661782661782
785,1.632185592185592
786,1.684981684981685
787,1.6962148962148962
788,1.7141880341880342
789,1.6793650793650794
790,1.6378021978021975
791,1.6355555555555557
792,1.6422954822954825
793,1.677118437118437
794,1.6883516483516483
795,1.6917216117216116
796,1.6928449328449329
797,1.6636385836385836
798,1.5535531135531135
799,1.5501831501831502
800,1.6097191697191695
801,1.647912087912088
802,1.6613919413919414
803,1.6905982905982906
804,1.675995115995116
805,1.64004884004884
806,1.6254456654456657
807,1.5973626373626373
808,1.585006105006105
809,1.5602930402930404
810,1.5816361416361415
811,1.5973626373626373
812,1.638925518925519
813,1.6557753357753358
814,1.656898656898657
815,1.675995115995116
816,1.7007081807081808
817,1.6917216117216116
818,1.638925518925519
819,1.5872527472527471
820,1.574896214896215
821,1.576019536019536
822,1.6085958485958487
823,1.6142124542124543
824,1.6187057387057386
825,1.6288156288156288
826,1.6355555555555557
827,1.6288156288156288
828,1.592869352869353
829,1.6052258852258852
830,1.6097191697191695
831,1.6052258852258852
832,1.611965811965812
833,1.6231990231990232
834,1.6265689865689863
835,1.615335775335775
836,1.5984859584859583
837,1.6220757020757022
838,1.6265689865689863
839,1.6097191697191695
840,1.5434432234432234
841,1.494017094017094
842,1.5265934065934066
843,1.6097191697191695
844,1.677118437118437
845,1.7231746031746031
846,1.777094017094017
847,1.800683760683761
848,1.8141636141636144
849,1.8018070818070815
850,1.802930402930403
851,1.783833943833944
852,1.7535042735042734
853,1.7096947496947497
854,1.6344322344322344
855,1.5793894993894997
856,1.558046398046398
857,1.5805128205128205
858,1.5906227106227109
859,1.558046398046398
860,1.522100122100122
861,1.5322100122100122
862,1.5782661782661782
863,1.6220757020757022
864,1.6074725274725274
865,1.6254456654456657
866,1.7591208791208792
867,2.1578998778998777
868,2.7644932844932844
869,3.2093284493284493
870,3.2082051282051283
871,2.7914529914529917
872,2.266862026862027
873,1.8355067155067155
874,1.6164590964590964
875,1.5164835164835164
876,1.4636874236874238
877,1.3985347985347985
878,1.4063980463980463
879,1.404151404151404
880,1.412014652014652
881,1.3783150183150183
882,1.377191697191697
883,1.374945054945055
884,1.3985347985347985
885,1.4165079365079365
886,1.410891330891331
887,1.3917948717948718
888,1.4153846153846157
889,1.4165079365079365
890,1.4266178266178269
891,1.4445909645909647
892,1.4468376068376068
893,1.4423443223443224
894,1.4075213675213676
895,1.4086446886446886
896,1.4389743589743589
897,1.4861538461538462
898,1.511990231990232
899,1.5265934065934066
900,1.467057387057387
901,1.4648107448107448
902,1.4794139194139193
903,1.4648107448107448
904,1.5131135531135531
905,1.586129426129426
906,1.620952380952381
907,1.631062271062271
908,1.6052258852258852
909,1.6164590964590964
910,1.6085958485958487
911,1.6052258852258852
912,1.6557753357753358
913,1.6827350427350427
914,1.6737484737484738
915,1.7153113553113553
916,1.7478876678876678
917,1.779340659340659
918,1.811916971916972
919,1.820903540903541
920,1.811916971916972
921,1.7883272283272282
922,1.7815873015873016
923,1.7669841269841269
924,1.7512576312576311
925,1.7456410256410255
926,1.738901098901099
927,1.7265445665445665
928,1.72991452991453
929,1.757997557997558
930,1.7692307692307692
931,1.7535042735042734
932,1.7321611721611725
933,1.7198046398046398
934,1.731037851037851
935,1.7591208791208792
936,1.7647374847374848
937,1.7456410256410255
938,1.702954822954823
939,1.7018315018315018
940,1.737777777777778
941,1.7344078144078143
942,1.7478876678876678
943,1.7344078144078143
944,1.7355311355311356
945,1.7366544566544566
946,1.749010989010989
947,1.756874236874237
948,1.7782173382173383
949,1.768107448107448
950,1.7535042735042734
951,1.7422710622710622
952,1.7647374847374848
953,1.795067155067155
954,1.7984371184371184
955,1.8107936507936508
956,1.8074236874236875
957,1.7872039072039072
958,1.7726007326007327
959,1.7669841269841269
960,1.8074236874236875
961,1.822026862026862
962,1.8355067155067155
963,1.841123321123321
964,1.8534798534798536
965,1.84
966,1.8444932844932844
967,1.822026862026862
968,1.8164102564102564
969,1.823150183150183
970,1.82989010989011
971,1.831013431013431
972,1.82989010989011
973,1.85010989010989
974,1.8546031746031744
975,1.855726495726496
976,1.8265201465201464
977,1.8051770451770448
978,1.7894505494505497
979,1.8096703296703296
980,1.8736996336996337
981,1.9422222222222223
982,1.983785103785104
983,1.977045177045177
984,1.9455921855921856
985,1.9175091575091572
986,1.932112332112332
987,1.9085225885225885
988,1.8624664224664225
989,1.8456166056166057
990,1.823150183150183
991,1.8018070818070815
992,1.7995604395604397
993,1.796190476190476
994,1.7916971916971918
995,1.820903540903541
996,1.8164102564102564
997,1.8141636141636144
998,1.7692307692307692
999,1.7242979242979244
1000,1.775970695970696
1001,2.0747741147741148
1002,2.6667643467643467
1003,3.24976800976801
1004,3.495775335775336
1005,3.277851037851038
1006,2.801562881562881
1007,2.3174114774114773
1008,1.9905250305250304
1009,1.8355067155067155
1010,1.7254212454212454
1011,1.6804884004884004
1012,1.6501587301587302
1013,1.6456654456654456
1014,1.636678876678877
1015,1.6625152625152626
1016,1.6602686202686203
1017,1.6748717948717948
1018,1.6804884004884004
1019,1.667008547008547
1020,1.6883516483516483
1021,1.7063247863247863
1022,1.675995115995116
1023,1.6894749694749696
1024,1.6816117216117217
1025,1.6602686202686203
1026,1.6748717948717948
1027,1.6962148962148962
1028,1.702954822954823
1029,1.7445177045177045
1030,1.756874236874237
1031,1.757997557997558
1032,1.7512576312576311
1033,1.7344078144078143
1034,1.7254212454212454
1035,1.705201465201465
1036,1.7018315018315018
1037,1.6804884004884004
1038,1.683858363858364
1039,1.659145299145299
1040,1.6512820512820512
1041,1.6557753357753358
1042,1.6692551892551892
1043,1.693968253968254
1044,1.675995115995116
1045,1.6625152625152626
1046,1.665885225885226
1047,1.686105006105006
1048,1.749010989010989
1049,1.784957264957265
1050,1.8164102564102564
1051,1.82989010989011
1052,1.8265201465201464
1053,1.8242735042735043
1054,1.827643467643468
1055,1.832136752136752
1056,1.8096703296703296
1057,1.7939438339438338
1058,1.7905738705738703
1059,1.795067155067155
1060,1.756874236874237
1061,1.7535042735042734
1062,1.7467643467643468
1063,1.7535042735042734
1064,1.7332844932844933
1065,1.7332844932844933
1066,1.7321611721611725
1067,1.7175579975579975
1068,1.7344078144078143
1069,1.7467643467643468
1070,1.7355311355311356
1071,1.731037851037851
1072,1.7321611721611725
1073,1.731037851037851
1074,1.737777777777778
1075,1.7355311355311356
1076,1.705201465201465
1077,1.702954822954823
1078,1.722051282051282
1079,1.7355311355311356
1080,1.75013431013431
1081,1.7344078144078143
1082,1.7153113553113553
1083,1.7074481074481074
1084,1.7209279609279609
1085,1.7332844932844933
1086,1.756874236874237
1087,1.737777777777778
1088,1.731037851037851
1089,1.7254212454212454
1090,1.7411477411477412
1091,1.7344078144078143
1092,1.731037851037851
1093,1.7344078144078143
1094,1.7063247863247863
1095,1.7276678876678877
1096,1.731037851037851
1097,1.7254212454212454
1098,1.722051282051282
1099,1.7096947496947497
1100,1.7074481074481074
1101,1.737777777777778
1102,1.75013431013431
1103,1.7422710622710622
1104,1.756874236874237
1105,1.7355311355311356
1106,1.7366544566544566
1107,1.7231746031746031
1108,1.7355311355311356
1109,1.7186813186813186
1110,1.6950915750915752
1111,1.6962148962148962
1112,1.6894749694749696
1113,1.704078144078144
1114,1.72991452991453
1115,1.7703540903540904
1116,1.8096703296703296
1117,1.8175335775335772
1118,1.82989010989011
1119,1.8186568986568987
1120,1.8141636141636144
1121,1.7905738705738703
1122,1.7737240537240535
1123,1.756874236874237
1124,1.7366544566544566
1125,1.7254212454212454
1126,1.7074481074481074
1127,1.6928449328449329
1128,1.678241758241758
1129,1.6928449328449329
1130,1.6883516483516483
1131,1.702954822954823
1132,1.705201465201465
1133,1.675995115995116
1134,1.6434188034188033
1135,1.7198046398046398
1136,2.034334554334554
1137,2.631941391941392
1138,3.1745054945054947
1139,3.3576068376068378
1140,3.0374603174603174
1141,2.584761904761905
1142,2.1444200244200244
1143,1.855726495726496
1144,1.7096947496947497
1145,1.6265689865689863
1146,1.5973626373626373
1147,1.5838827838827838
1148,1.54007326007326
1149,1.5367032967032968
1150,1.5333333333333334
1151,1.5602930402930404
1152,1.5602930402930404
1153,1.573772893772894
1154,1.5557997557997558
1155,1.5614163614163614
1156,1.5456898656898657
1157,1.5647863247863247
1158,1.574896214896215
1159,1.5973626373626373
1160,1.586129426129426
1161,1.5838827838827838
1162,1.5973626373626373
1163,1.5984859584859583
1164,1.5973626373626373
1165,1.604102564102564
1166,1.6108424908424908
1167,1.6085958485958487
1168,1.6220757020757022
1169,1.6142124542124543
1170,1.6108424908424908
1171,1.632185592185592
1172,1.6535286935286937
1173,1.6681318681318682
1174,1.6737484737484738
1175,1.6793650793650794
1176,1.686105006105006
1177,1.6804884004884004
1178,1.7007081807081808
1179,1.7321611721611725
1180,1.7265445665445665
1181,1.7433943833943837
1182,1.7737240537240535
1183,1.8063003663003665
1184,1.827643467643468
1185,1.8635897435897435
1186,1.8658363858363856
1187,1.841123321123321
1188,1.8444932844932844
1189,1.8388766788766788
1190,1.82989010989011
1191,1.823150183150183
1192,1.8063003663003665
1193,1.7939438339438338
1194,1.779340659340659
1195,1.7714774114774114
1196,1.7714774114774114
1197,1.7478876678876678
1198,1.7276678876678877
1199,1.7276678876678877
1200,1.7265445665445665
1201,1.7456410256410255
1202,1.7254212454212454
1203,1.722051282051282
1204,1.713064713064713
1205,1.6950915750915752
1206,1.705201465201465
1207,1.7153113553113553
1208,1.7287912087912087
1209,1.7209279609279609
1210,1.7186813186813186
1211,1.7254212454212454
1212,1.7344078144078143
1213,1.7096947496947497
1214,1.6950915750915752
1215,1.710818070818071
1216,1.7085714285714286
1217,1.7074481074481074
1218,1.7344078144078143
1219,1.74002442002442
1220,1.757997557997558
1221,1.7523809523809524
1222,1.7602442002442005
1223,1.7433943833943837
1224,1.7411477411477412
1225,1.7591208791208792
1226,1.7591208791208792
1227,1.7512576312576311
1228,1.7557509157509157
1229,1.7782173382173383
1230,1.7726007326007327
1231,1.7726007326007327
1232,1.7703540903540904
1233,1.7669841269841269
1234,1.756874236874237
1235,1.7894505494505497
1236,1.7894505494505497
1237,1.7916971916971918
1238,1.7916971916971918
1239,1.7973137973137974
1240,1.8051770451770448
1241,1.7939438339438338
1242,1.7748473748473748
1243,1.7905738705738703
1244,1.7905738705738703
1245,1.7782173382173383
1246,1.823150183150183
1247,1.8624664224664225
1248,1.875946275946276
1249,1.902905982905983
1250,1.895042735042735
1251,1.8736996336996337
1252,1.8725763125763129
1253,1.8534798534798536
1254,1.8366300366300363
1255,1.7905738705738703
1256,1.7692307692307692
1257,1.7748473748473748
1258,1.7692307692307692
1259,1.7546275946275949
1260,1.7411477411477412
1261,1.75013431013431
1262,1.7523809523809524
1263,1.7287912087912087
1264,1.7557509157509157
1265,1.7141880341880342
1266,1.6894749694749696
1267,1.7894505494505497
1268,2.15003663003663
1269,2.7375335775335774
1270,3.2991941391941397
1271,3.496898656898657
1272,3.173382173382173
1273,2.63980463980464
1274,2.1298168498168497
1275,1.8546031746031744
1276,1.6995848595848595
1277,1.631062271062271
1278,1.567032967032967
1279,1.5535531135531135
1280,1.52996336996337
1281,1.5176068376068377
1282,1.5153601953601954
1283,1.5108669108669108
1284,1.511990231990232
1285,1.520976800976801
1286,1.5187301587301587
1287,1.5187301587301587
1288,1.5097435897435898
1289,1.5322100122100122
1290,1.52996336996337
1291,1.5063736263736265
1292,1.5097435897435898
1293,1.5176068376068377
1294,1.5423199023199023
1295,1.558046398046398
1296,1.546813186813187
1297,1.5614163614163614
1298,1.5726495726495726
1299,1.574896214896215
1300,1.5872527472527471
1301,1.5805128205128205
1302,1.5962393162393165
1303,1.6018559218559218
1304,1.5962393162393165
1305,1.593992673992674
1306,1.6007326007326008
1307,1.6142124542124543
1308,1.6231990231990232
1309,1.6175824175824176
1310,1.647912087912088
1311,1.677118437118437
1312,1.6827350427350427
1313,1.6917216117216116
1314,1.7085714285714286
1315,1.710818070818071
1316,1.7085714285714286
1317,1.722051282051282
1318,1.7445177045177045
1319,1.7737240537240535
1320,1.7647374847374848
1321,1.757997557997558
1322,1.737777777777778
1323,1.7198046398046398
1324,1.704078144078144
1325,1.6995848595848595
1326,1.6681318681318682
1327,1.678241758241758
1328,1.6692551892551892
1329,1.6703785103785105
1330,1.6748717948717948
1331,1.6804884004884004
1332,1.6894749694749696
1333,1.678241758241758
1334,1.675995115995116
1335,1.6894749694749696
1336,1.702954822954823
1337,1.686105006105006
1338,1.705201465201465
1339,1.6950915750915752
1340,1.7007081807081808
1341,1.6995848595848595
1342,1.6950915750915752
1343,1.704078144078144
1344,1.7085714285714286
1345,1.704078144078144
1346,1.7085714285714286
1347,1.705201465201465
1348,1.7254212454212454
1349,1.7164346764346765
1350,1.7344078144078143
1351,1.7254212454212454
1352,1.7332844932844933
1353,1.7411477411477412
1354,1.749010989010989
1355,1.7467643467643468
1356,1.7445177045177045
1357,1.7411477411477412
1358,1.7445177045177045
1359,1.7624908424908423
1360,1.7523809523809524
1361,1.7433943833943837
1362,1.7512576312576311
1363,1.7535042735042734
1364,1.7714774114774114
1365,1.7591208791208792
1366,1.7591208791208792
1367,1.7557509157509157
1368,1.775970695970696
1369,1.7905738705738703
1370,1.7939438339438338
1371,1.7815873015873016
1372,1.775970695970696
1373,1.768107448107448
1374,1.7748473748473748
1375,1.7782173382173383
1376,1.7591208791208792
1377,1.7737240537240535
1378,1.802930402930403
1379,1.84
1380,1.8826862026862028
1381,1.891672771672772
1382,1.8894261294261292
1383,1.8927960927960927
1384,1.8613431013431012
1385,1.8456166056166057
1386,1.8242735042735043
1387,1.7872039072039072
1388,1.7512576312576311
1389,1.7624908424908423
1390,1.7433943833943837
1391,1.738901098901099
1392,1.7276678876678877
1393,1.7366544566544566
1394,1.7478876678876678
1395,1.7535042735042734
1396,1.737777777777778
1397,1.7018315018315018
1398,1.7153113553113553
1399,1.902905982905983
1400,2.3836874236874235
1401,2.9857875457875456
1402,3.4126495726495727
1403,3.391306471306472
1404,2.9947741147741147
1405,2.4859096459096457
1406,2.046691086691087
1407,1.8063003663003665
1408,1.667008547008547
1409,1.6187057387057386
1410,1.5962393162393165
1411,1.574896214896215
1412,1.546813186813187
1413,1.5423199023199023
1414,1.5243467643467643
1415,1.52996336996337
1416,1.5322100122100122
1417,1.54007326007326
1418,1.5344566544566545
1419,1.5445665445665446
1420,1.546813186813187
1421,1.54007326007326
1422,1.5513064713064713
1423,1.568156288156288
1424,1.5591697191697191
1425,1.5569230769230769
1426,1.565909645909646
1427,1.573772893772894
1428,1.558046398046398
1429,1.5614163614163614
1430,1.5771428571428572
1431,1.576019536019536
1432,1.5793894993894997
1433,1.574896214896215
1434,1.5827594627594628
1435,1.5692796092796093
1436,1.5838827838827838
1437,1.592869352869353
1438,1.6265689865689863
1439,1.6243223443223442
1440,1.6299389499389498
1441,1.64004884004884
1442,1.659145299145299
1443,1.6625152625152626
1444,1.667008547008547
1445,1.678241758241758
1446,1.7096947496947497
1447,1.7287912087912087
1448,1.7456410256410255
1449,1.7613675213675213
1450,1.7445177045177045
1451,1.7456410256410255
1452,1.7445177045177045
1453,1.738901098901099
1454,1.7141880341880342
1455,1.7456410256410255
1456,1.7422710622710622
1457,1.7535042735042734
1458,1.7546275946275949
1459,1.7546275946275949
1460,1.7355311355311356
1461,1.7456410256410255
1462,1.7411477411477412
1463,1.7366544566544566
1464,1.74002442002442
1465,1.7332844932844933
1466,1.74002442002442
1467,1.72991452991453
1468,1.7411477411477412
1469,1.7265445665445665
1470,1.7321611721611725
1471,1.7198046398046398
1472,1.7153113553113553
1473,1.7175579975579975
1474,1.6962148962148962
1475,1.683858363858364
1476,1.6827350427350427
1477,1.6681318681318682
1478,1.6535286935286937
1479,1.6715018315018315
1480,1.6557753357753358
1481,1.665885225885226
1482,1.6917216117216116
1483,1.6917216117216116
1484,1.6928449328449329
1485,1.6984615384615385
1486,1.677118437118437
1487,1.675995115995116
1488,1.665885225885226
1489,1.677118437118437
1490,1.6950915750915752
1491,1.683858363858364
1492,1.7063247863247863
1493,1.6973382173382174
1494,1.7018315018315018
1495,1.705201465201465
1496,1.7007081807081808
1497,1.7265445665445665
1498,1.749010989010989
1499,1.7535042735042734
1500,1.756874236874237
1501,1.7557509157509157
1502,1.7557509157509157
1503,1.7669841269841269
1504,1.7512576312576311
1505,1.7411477411477412
1506,1.731037851037851
1507,1.7355311355311356
1508,1.7478876678876678
1509,1.757997557997558
1510,1.7658608058608058
1511,1.8096703296703296
1512,1.8186568986568987
1513,1.848986568986569
1514,1.8590964590964592
1515,1.866959706959707
1516,1.8624664224664225
1517,1.8456166056166057
1518,1.8265201465201464
1519,1.804053724053724
1520,1.7613675213675213
1521,1.7355311355311356
1522,1.705201465201465
1523,1.6962148962148962
1524,1.675995115995116
1525,1.6748717948717948
1526,1.6950915750915752
1527,1.693968253968254
1528,1.7186813186813186
1529,1.7141880341880342
1530,1.6715018315018315
1531,1.7344078144078143
1532,1.986031746031746
1533,2.5488156288156287
1534,3.134065934065934
1535,3.4002930402930405
1536,3.1745054945054947
1537,2.716190476190476
1538,2.2342857142857144
1539,1.881562881562881
1540,1.7085714285714286
1541,1.6097191697191695
1542,1.565909645909646
1543,1.5513064713064713
1544,1.511990231990232
1545,1.5131135531135531
1546,1.483907203907204
1547,1.4693040293040294
1548,1.4794139194139193
1549,1.4816605616605616
1550,1.4827838827838828
1551,1.511990231990232
1552,1.5288400488400489
1553,1.5097435897435898
1554,1.5063736263736265
1555,1.4928937728937728
1556,1.5086202686202683
1557,1.494017094017094
1558,1.483907203907204
1559,1.4861538461538462
1560,1.5097435897435898
1561,1.5108669108669108
1562,1.5007570207570209
1563,1.5187301587301587
1564,1.5322100122100122
1565,1.546813186813187
1566,1.5569230769230769
1567,1.5692796092796093
1568,1.5692796092796093
1569,1.5805128205128205
1570,1.5647863247863247
1571,1.5614163614163614
1572,1.574896214896215
1573,1.5827594627594628
1574,1.604102564102564
1575,1.638925518925519
1576,1.6625152625152626
1577,1.659145299145299
1578,1.6804884004884004
1579,1.7074481074481074
1580,1.738901098901099
1581,1.7445177045177045
1582,1.7411477411477412
1583,1.74002442002442
1584,1.7254212454212454
1585,1.7018315018315018
1586,1.6928449328449329
1587,1.6636385836385836
1588,1.6355555555555557
1589,1.6355555555555557
1590,1.6254456654456657
1591,1.6187057387057386
1592,1.61982905982906
1593,1.6164590964590964
1594,1.6243223443223442
1595,1.6411721611721612
1596,1.6524053724053724
1597,1.6512820512820512
1598,1.667008547008547
1599,1.6647619047619049
1600,1.677118437118437
1601,1.6703785103785105
1602,1.658021978021978
1603,1.6804884004884004
1604,1.684981684981685
1605,1.6726251526251523
1606,1.6827350427350427
1607,1.684981684981685
1608,1.7018315018315018
1609,1.6950915750915752
1610,1.7074481074481074
1611,1.7186813186813186
1612,1.7063247863247863
1613,1.7085714285714286
1614,1.7164346764346765
1615,1.722051282051282
1616,1.7242979242979244
1617,1.7276678876678877
1618,1.7321611721611725
1619,1.7164346764346765
1620,1.737777777777778
1621,1.7332844932844933
1622,1.7344078144078143
1623,1.737777777777778
1624,1.7591208791208792
1625,1.7456410256410255
1626,1.7591208791208792
1627,1.7737240537240535
1628,1.775970695970696
1629,1.795067155067155
1630,1.796190476190476
1631,1.7737240537240535
1632,1.7636141636141636
1633,1.7591208791208792
1634,1.7523809523809524
1635,1.7546275946275949
1636,1.7703540903540904
1637,1.777094017094017
1638,1.8074236874236875
1639,1.8355067155067155
1640,1.8714529914529916
1641,1.895042735042735
1642,1.9006593406593408
1643,1.895042735042735
1644,1.8905494505494504
1645,1.866959706959707
1646,1.855726495726496
1647,1.8467399267399267
1648,1.8141636141636144
1649,1.802930402930403
1650,1.8141636141636144
1651,1.795067155067155
1652,1.7804639804639804
1653,1.7883272283272282
1654,1.7804639804639804
1655,1.7860805860805862
1656,1.777094017094017
1657,1.7355311355311356
1658,1.737777777777778
1659,1.8984126984126983
1660,2.3702075702075702
1661,3.007130647130647
1662,3.451965811965812
1663,3.445225885225885
1664,3.01948717948718
1665,2.5094993894993896
1666,2.0826373626373624
1667,1.8355067155067155
1668,1.722051282051282
1669,1.6681318681318682
1670,1.6434188034188033
1671,1.620952380952381
1672,1.6220757020757022
1673,1.6074725274725274
1674,1.6097191697191695
1675,1.5973626373626373
1676,1.5996092796092796
1677,1.5962393162393165
1678,1.5883760683760684
1679,1.6007326007326008
1680,1.5906227106227109
1681,1.6007326007326008
1682,1.5984859584859583
1683,1.6063492063492064
1684,1.5973626373626373
1685,1.6085958485958487
1686,1.6052258852258852
1687,1.6097191697191695
1688,1.6029792429792429
1689,1.611965811965812
1690,1.611965811965812
1691,1.61982905982906
1692,1.638925518925519
1693,1.6378021978021975
1694,1.6378021978021975
1695,1.638925518925519
1696,1.656898656898657
1697,1.667008547008547
1698,1.6625152625152626
1699,1.678241758241758
1700,1.6962148962148962
1701,1.705201465201465
1702,1.7085714285714286
1703,1.7242979242979244
1704,1.731037851037851
1705,1.7422710622710622
1706,1.7557509157509157
1707,1.7894505494505497
1708,1.802930402930403
1709,1.813040293040293
1710,1.81978021978022
1711,1.802930402930403
1712,1.7939438339438338
1713,1.7714774114774114
1714,1.7636141636141636
1715,1.7512576312576311
1716,1.7366544566544566
1717,1.74002442002442
1718,1.7198046398046398
1719,1.7164346764346765
1720,1.7164346764346765
1721,1.7141880341880342
1722,1.7153113553113553
1723,1.7276678876678877
1724,1.711941391941392
1725,1.705201465201465
1726,1.7198046398046398
1727,1.722051282051282
1728,1.7096947496947497
1729,1.7175579975579975
1730,1.7422710622710622
1731,1.7433943833943837
1732,1.7355311355311356
1733,1.7242979242979244
1734,1.710818070818071
1735,1.722051282051282
1736,1.7355311355311356
1737,1.7366544566544566
1738,1.7613675213675213
1739,1.7692307692307692
1740,1.7613675213675213
1741,1.7433943833943837
1742,1.7445177045177045
1743,1.7557509157509157
1744,1.7557509157509157
1745,1.7669841269841269
1746,1.7658608058608058
1747,1.7613675213675213
1748,1.7703540903540904
1749,1.7714774114774114
1750,1.779340659340659
1751,1.7658608058608058
1752,1.7748473748473748
1753,1.7467643467643468
1754,1.749010989010989
1755,1.7591208791208792
1756,1.7703540903540904
1757,1.7658608058608058
1758,1.737777777777778
1759,1.7355311355311356
1760,1.7355311355311356
1761,1.713064713064713
1762,1.7141880341880342
1763,1.7198046398046398
1764,1.704078144078144
1765,1.722051282051282
1766,1.7557509157509157
1767,1.779340659340659
1768,1.811916971916972
1769,1.81978021978022
1770,1.842246642246642
1771,1.8377533577533576
1772,1.8388766788766788
1773,1.8186568986568987
1774,1.7860805860805862
1775,1.7737240537240535
1776,1.7602442002442005
1777,1.7422710622710622
1778,1.7467643467643468
1779,1.7332844932844933
1780,1.7164346764346765
1781,1.731037851037851
1782,1.7164346764346765
1783,1.7433943833943837
1784,1.768107448107448
1785,1.710818070818071
1786,1.684981684981685
1787,1.8107936507936508
1788,2.1960927960927963
1789,2.8397557997558
1790,3.3856898656898657
1791,3.4587057387057385
1792,3.120586080586081
1793,2.6195848595848594
1794,2.1286935286935287
1795,1.868083028083028
1796,1.7355311355311356
1797,1.6872283272283273
1798,1.6288156288156288
1799,1.5894993894993894
1800,1.5827594627594628
1801,1.6074725274725274
1802,1.6063492063492064
1803,1.592869352869353
1804,1.5906227106227109
1805,1.5917460317460317
1806,1.5782661782661782
1807,1.568156288156288
1808,1.5793894993894997
1809,1.5838827838827838
1810,1.5692796092796093
1811,1.5872527472527471
1812,1.5951159951159952
1813,1.5906227106227109
1814,1.5894993894993894
1815,1.573772893772894
1816,1.592869352869353
1817,1.5827594627594628
1818,1.5793894993894997
1819,1.5827594627594628
1820,1.5906227106227109
1821,1.604102564102564
1822,1.6164590964590964
1823,1.6276923076923078
1824,1.61982905982906
1825,1.6411721611721612
1826,1.6355555555555557
1827,1.6501587301587302
1828,1.6557753357753358
1829,1.6647619047619049
1830,1.665885225885226
1831,1.6894749694749696
1832,1.6950915750915752
1833,1.7153113553113553
1834,1.737777777777778
1835,1.7512576312576311
1836,1.7748473748473748
1837,1.7737240537240535
1838,1.7782173382173383
1839,1.7624908424908423
1840,1.768107448107448
1841,1.7624908424908423
1842,1.737777777777778
1843,1.749010989010989
1844,1.7186813186813186
1845,1.7007081807081808
1846,1.6950915750915752
1847,1.693968253968254
1848,1.6962148962148962
1849,1.6984615384615385
1850,1.683858363858364
1851,1.6917216117216116
1852,1.6827350427350427
1853,1.6816117216117217
1854,1.677118437118437
1855,1.6950915750915752
1856,1.6917216117216116
1857,1.6984615384615385
1858,1.6995848595848595
1859,1.6984615384615385
1860,1.713064713064713
1861,1.7063247863247863
1862,1.7198046398046398
1863,1.713064713064713
1864,1.6984615384615385
1865,1.6995848595848595
1866,1.7141880341880342
1867,1.6950915750915752
1868,1.6928449328449329
1869,1.6872283272283273
1870,1.705201465201465
1871,1.7355311355311356
1872,1.7478876678876678
1873,1.7613675213675213
1874,1.7411477411477412
1875,1.7344078144078143
1876,1.7242979242979244
1877,1.7456410256410255
1878,1.7265445665445665
1879,1.7231746031746031
1880,1.7265445665445665
1881,1.713064713064713
1882,1.686105006105006
1883,1.6804884004884004
1884,1.6984615384615385
1885,1.7175579975579975
1886,1.7366544566544566
1887,1.7669841269841269
1888,1.7546275946275949
1889,1.7186813186813186
1890,1.6894749694749696
1891,1.6524053724053724
1892,1.6647619047619049
1893,1.7018315018315018
1894,1.7355311355311356
1895,1.7726007326007327
1896,1.813040293040293
1897,1.848986568986569
1898,1.8512332112332115
1899,1.841123321123321
1900,1.8467399267399267
1901,1.8287667887667889
1902,1.8265201465201464
1903,1.800683760683761
1904,1.7860805860805862
1905,1.7804639804639804
1906,1.775970695970696
1907,1.7669841269841269
1908,1.749010989010989
1909,1.7478876678876678
1910,1.756874236874237
1911,1.7613675213675213
1912,1.7647374847374848
1913,1.7860805860805862
1914,1.74002442002442
1915,1.7287912087912087
1916,1.81978021978022
1917,2.168009768009768
1918,2.740903540903541
1919,3.258754578754578
1920,3.371086691086691
1921,3.043076923076923
1922,2.5993650793650795
1923,2.173626373626373
1924,1.8927960927960927
1925,1.7433943833943837
1926,1.6703785103785105
1927,1.659145299145299
1928,1.6344322344322344
1929,1.6467887667887668
1930,1.64004884004884
1931,1.6344322344322344
1932,1.6378021978021975
1933,1.6231990231990232
1934,1.6052258852258852
1935,1.611965811965812
1936,1.6097191697191695
1937,1.6018559218559218
1938,1.6085958485958487
1939,1.6220757020757022
1940,1.632185592185592
1941,1.6187057387057386
1942,1.6187057387057386
1943,1.6097191697191695
1944,1.6535286935286937
1945,1.6613919413919414
1946,1.6355555555555557
1947,1.6613919413919414
1948,1.6445421245421246
1949,1.638925518925519
1950,1.6467887667887668
1951,1.6647619047619049
1952,1.6703785103785105
1953,1.684981684981685
1954,1.6872283272283273
1955,1.6905982905982906
1956,1.7063247863247863
1957,1.6962148962148962
1958,1.693968253968254
1959,1.713064713064713
1960,1.7422710622710622
1961,1.7254212454212454
1962,1.7321611721611725
1963,1.7602442002442005
1964,1.7703540903540904
1965,1.8051770451770448
1966,1.8265201465201464
1967,1.823150183150183
1968,1.82989010989011
1969,1.8063003663003665
1970,1.7872039072039072
1971,1.7591208791208792
1972,1.7254212454212454
1973,1.7186813186813186
1974,1.722051282051282
1975,1.6905982905982906
1976,1.683858363858364
1977,1.6816117216117217
1978,1.705201465201465
1979,1.6984615384615385
1980,1.705201465201465
1981,1.7018315018315018
1982,1.711941391941392
1983,1.7018315018315018
1984,1.7141880341880342
1985,1.713064713064713
1986,1.713064713064713
1987,1.7209279609279609
1988,1.7175579975579975
1989,1.7175579975579975
1990,1.713064713064713
1991,1.7063247863247863
1992,1.713064713064713
1993,1.722051282051282
1994,1.710818070818071
1995,1.731037851037851
1996,1.7231746031746031
1997,1.7164346764346765
1998,1.7231746031746031
1999,1.7186813186813186
