Index,II
0,1.5131135531135531
1,1.5063736263736265
2,1.4928937728937728
3,1.4973870573870574
4,1.5176068376068377
5,1.5187301587301587
6,1.5187301587301587
7,1.5187301587301587
8,1.494017094017094
9,1.4985103785103786
10,1.4996336996336996
11,1.501880341880342
12,1.5333333333333334
13,1.5367032967032968
14,1.5513064713064713
15,1.558046398046398
16,1.5636630036630037
17,1.576019536019536
18,1.6063492063492064
19,1.6164590964590964
20,1.6231990231990232
21,1.6265689865689863
22,1.6434188034188033
23,1.6490354090354091
24,1.6737484737484738
25,1.6905982905982906
26,1.7018315018315018
27,1.722051282051282
28,1.72991452991453
29,1.7355311355311356
30,1.731037851037851
31,1.7254212454212454
32,1.7231746031746031
33,1.7198046398046398
34,1.713064713064713
35,1.705201465201465
36,1.6984615384615385
37,1.6816117216117217
38,1.6613919413919414
39,1.6456654456654456
40,1.6344322344322344
41,1.6355555555555557
42,1.6737484737484738
43,1.6917216117216116
44,1.6962148962148962
45,1.6928449328449329
46,1.693968253968254
47,1.6984615384615385
48,1.6894749694749696
49,1.6647619047619049
50,1.675995115995116
51,1.6995848595848595
52,1.704078144078144
53,1.693968253968254
54,1.6917216117216116
55,1.683858363858364
56,1.6703785103785105
57,1.6613919413919414
58,1.6703785103785105
59,1.6872283272283273
60,1.7018315018315018
61,1.686105006105006
62,1.6726251526251523
63,1.6535286935286937
64,1.675995115995116
65,1.7175579975579975
66,1.7276678876678877
67,1.704078144078144
68,1.6748717948717948
69,1.6467887667887668
70,1.647912087912088
71,1.6681318681318682
72,1.7153113553113553
73,1.7647374847374848
74,1.7894505494505497
75,1.7748473748473748
76,1.7355311355311356
77,1.7242979242979244
78,1.7018315018315018
79,1.7231746031746031
80,1.7366544566544566
81,1.75013431013431
82,1.7523809523809524
83,1.7523809523809524
84,1.7332844932844933
85,1.7209279609279609
86,1.7164346764346765
87,1.738901098901099
88,1.7355311355311356
89,1.7276678876678877
90,1.7231746031746031
91,1.710818070818071
92,1.7164346764346765
93,1.7175579975579975
94,1.6973382173382174
95,1.7153113553113553
96,1.7591208791208792
97,1.7827106227106226
98,1.8175335775335772
99,1.875946275946276
100,1.914139194139194
101,1.9242490842490845
102,1.9175091575091572
103,1.8849328449328449
104,1.8624664224664225
105,1.81978021978022
106,1.796190476190476
107,1.7939438339438338
108,1.775970695970696
109,1.779340659340659
110,1.783833943833944
111,1.779340659340659
112,1.7703540903540904
113,1.768107448107448
114,1.783833943833944
115,1.7422710622710622
116,1.7186813186813186
117,1.822026862026862
118,2.205079365079365
119,2.81953601953602
120,3.2553846153846155
121,3.2576312576312576
122,2.899291819291819
123,2.489279609279609
124,2.1062271062271063
125,1.8590964590964592
126,1.749010989010989
127,1.684981684981685
128,1.6378021978021975
129,1.5917460317460317
130,1.5951159951159952
131,1.6254456654456657
132,1.6108424908424908
133,1.592869352869353
134,1.6063492063492064
135,1.6097191697191695
136,1.6018559218559218
137,1.5984859584859583
138,1.5984859584859583
139,1.6007326007326008
140,1.604102564102564
141,1.6029792429792429
142,1.592869352869353
143,1.6063492063492064
144,1.5996092796092796
145,1.6175824175824176
146,1.6164590964590964
147,1.6074725274725274
148,1.6175824175824176
149,1.6411721611721612
150,1.6434188034188033
151,1.647912087912088
152,1.6501587301587302
153,1.665885225885226
154,1.6715018315018315
155,1.6467887667887668
156,1.6501587301587302
157,1.6950915750915752
158,1.7366544566544566
159,1.7624908424908423
160,1.7636141636141636
161,1.7624908424908423
162,1.7748473748473748
163,1.7894505494505497
164,1.802930402930403
165,1.8074236874236875
166,1.802930402930403
167,1.8152869352869352
168,1.811916971916972
169,1.783833943833944
170,1.777094017094017
171,1.7647374847374848
172,1.7624908424908423
173,1.756874236874237
174,1.7231746031746031
175,1.6995848595848595
176,1.6748717948717948
177,1.6703785103785105
178,1.6962148962148962
179,1.702954822954823
180,1.6962148962148962
181,1.711941391941392
182,1.737777777777778
183,1.7804639804639804
184,1.7905738705738703
185,1.7804639804639804
186,1.7714774114774114
187,1.7602442002442005
188,1.7321611721611725
189,1.7276678876678877
190,1.7523809523809524
191,1.7546275946275949
192,1.7209279609279609
193,1.6872283272283273
194,1.6265689865689863
195,1.6422954822954825
196,1.6816117216117217
197,1.7287912087912087
198,1.7366544566544566
199,1.74002442002442
200,1.7321611721611725
201,1.7321611721611725
202,1.7411477411477412
203,1.738901098901099
204,1.7321611721611725
205,1.7422710622710622
206,1.7726007326007327
207,1.737777777777778
208,1.7287912087912087
209,1.932112332112332
210,2.4432234432234434
211,3.0284737484737483
212,3.394676434676435
213,3.2598778998779
214,2.8273992673992674
215,2.312918192918193
216,1.964688644688645
217,1.779340659340659
218,1.665885225885226
219,1.6074725274725274
220,1.574896214896215
221,1.565909645909646
222,1.5434432234432234
223,1.5602930402930404
224,1.574896214896215
225,1.5996092796092796
226,1.5838827838827838
227,1.5569230769230769
228,1.538949938949939
229,1.5434432234432234
230,1.574896214896215
231,1.5951159951159952
232,1.6243223443223442
233,1.64004884004884
234,1.6456654456654456
235,1.6288156288156288
236,1.6231990231990232
237,1.6074725274725274
238,1.5973626373626373
239,1.6164590964590964
240,1.6097191697191695
241,1.6097191697191695
242,1.6333089133089134
243,1.6613919413919414
244,1.6681318681318682
245,1.665885225885226
246,1.6557753357753358
247,1.6703785103785105
248,1.6793650793650794
249,1.6928449328449329
250,1.702954822954823
251,1.7175579975579975
252,1.731037851037851
253,1.768107448107448
254,1.7860805860805862
255,1.775970695970696
256,1.757997557997558
257,1.7467643467643468
258,1.7433943833943837
259,1.7535042735042734
260,1.749010989010989
261,1.7287912087912087
262,1.7175579975579975
263,1.7085714285714286
264,1.675995115995116
265,1.6265689865689863
266,1.6422954822954825
267,1.6827350427350427
268,1.6883516483516483
269,1.678241758241758
270,1.6636385836385836
271,1.677118437118437
272,1.704078144078144
273,1.7164346764346765
274,1.7018315018315018
275,1.6625152625152626
276,1.6490354090354091
277,1.6737484737484738
278,1.7321611721611725
279,1.7523809523809524
280,1.7276678876678877
281,1.7287912087912087
282,1.7433943833943837
283,1.738901098901099
284,1.7332844932844933
285,1.7276678876678877
286,1.722051282051282
287,1.7332844932844933
288,1.7478876678876678
289,1.7557509157509157
290,1.7557509157509157
291,1.7602442002442005
292,1.756874236874237
293,1.7512576312576311
294,1.757997557997558
295,1.756874236874237
296,1.7602442002442005
297,1.7546275946275949
298,1.7557509157509157
299,1.7557509157509157
300,1.7546275946275949
301,1.7366544566544566
302,1.7478876678876678
303,1.7478876678876678
304,1.7422710622710622
305,1.7411477411477412
306,1.7433943833943837
307,1.738901098901099
308,1.7433943833943837
309,1.731037851037851
310,1.7153113553113553
311,1.713064713064713
312,1.7175579975579975
313,1.6973382173382174
314,1.6973382173382174
315,1.7209279609279609
316,1.7602442002442005
317,1.7591208791208792
318,1.7344078144078143
319,1.7276678876678877
320,1.7186813186813186
321,1.6703785103785105
322,1.6467887667887668
323,1.6827350427350427
324,1.7546275946275949
325,1.7726007326007327
326,1.7748473748473748
327,1.757997557997558
328,1.7321611721611725
329,1.686105006105006
330,1.6715018315018315
331,1.6715018315018315
332,1.6546520146520147
333,1.6894749694749696
334,1.731037851037851
335,1.74002442002442
336,1.7366544566544566
337,1.738901098901099
338,1.7467643467643468
339,1.7613675213675213
340,1.7624908424908423
341,1.7703540903540904
342,1.7557509157509157
343,1.731037851037851
344,1.731037851037851
345,1.7287912087912087
346,1.7321611721611725
347,1.731037851037851
348,1.7265445665445665
349,1.7355311355311356
350,1.7366544566544566
351,1.7085714285714286
352,1.6613919413919414
353,1.705201465201465
354,1.7782173382173383
355,1.7928205128205128
356,1.783833943833944
357,1.7647374847374848
358,1.7647374847374848
359,1.757997557997558
360,1.7411477411477412
361,1.72991452991453
362,1.7287912087912087
363,1.74002442002442
364,1.7456410256410255
365,1.777094017094017
366,1.777094017094017
367,1.7860805860805862
368,1.784957264957265
369,1.7782173382173383
370,1.768107448107448
371,1.7591208791208792
372,1.7636141636141636
373,1.7613675213675213
374,1.7512576312576311
375,1.7433943833943837
376,1.722051282051282
377,1.693968253968254
378,1.6962148962148962
379,1.7175579975579975
380,1.6715018315018315
381,1.6557753357753358
382,1.7242979242979244
383,1.823150183150183
384,1.9017826617826616
385,1.9062759462759464
386,1.8725763125763129
387,1.855726495726496
388,1.8332600732600728
389,1.8085470085470088
390,1.7860805860805862
391,1.784957264957265
392,1.779340659340659
393,1.74002442002442
394,1.7153113553113553
395,1.6804884004884004
396,1.6894749694749696
397,1.7085714285714286
398,1.693968253968254
399,1.6715018315018315
400,1.686105006105006
401,1.659145299145299
402,1.7074481074481074
403,1.9826617826617827
404,2.540952380952381
405,3.0486935286935286
406,3.264371184371184
407,3.0486935286935286
408,2.677997557997558
409,2.238778998778999
410,1.9017826617826616
411,1.7287912087912087
412,1.6378021978021975
413,1.5546764346764346
414,1.5513064713064713
415,1.6052258852258852
416,1.5917460317460317
417,1.5838827838827838
418,1.6276923076923078
419,1.6422954822954825
420,1.64004884004884
421,1.6220757020757022
422,1.6085958485958487
423,1.5996092796092796
424,1.6063492063492064
425,1.6265689865689863
426,1.6524053724053724
427,1.6748717948717948
428,1.6636385836385836
429,1.6175824175824176
430,1.6276923076923078
431,1.6344322344322344
432,1.6535286935286937
433,1.6434188034188033
434,1.647912087912088
435,1.6501587301587302
436,1.6299389499389498
437,1.5917460317460317
438,1.5355799755799755
439,1.5704029304029303
440,1.6748717948717948
441,1.7535042735042734
442,1.7591208791208792
443,1.7198046398046398
444,1.7209279609279609
445,1.7198046398046398
446,1.731037851037851
447,1.7726007326007327
448,1.800683760683761
449,1.7984371184371184
450,1.777094017094017
451,1.7726007326007327
452,1.7478876678876678
453,1.7445177045177045
454,1.7602442002442005
455,1.8063003663003665
456,1.8546031746031744
457,1.8613431013431012
458,1.842246642246642
459,1.8388766788766788
460,1.820903540903541
461,1.811916971916972
462,1.800683760683761
463,1.7872039072039072
464,1.7815873015873016
465,1.7928205128205128
466,1.8107936507936508
467,1.8164102564102564
468,1.820903540903541
469,1.7939438339438338
470,1.7647374847374848
471,1.7546275946275949
472,1.7726007326007327
473,1.7860805860805862
474,1.7669841269841269
475,1.7613675213675213
476,1.7804639804639804
477,1.7827106227106226
478,1.757997557997558
479,1.7602442002442005
480,1.7905738705738703
481,1.800683760683761
482,1.7939438339438338
483,1.7546275946275949
484,1.722051282051282
485,1.7366544566544566
486,1.7546275946275949
487,1.7748473748473748
488,1.81978021978022
489,1.842246642246642
490,1.8242735042735043
491,1.783833943833944
492,1.7692307692307692
493,1.775970695970696
494,1.7647374847374848
495,1.737777777777778
496,1.7445177045177045
497,1.7703540903540904
498,1.813040293040293
499,1.847863247863248
500,1.8164102564102564
501,1.756874236874237
502,1.705201465201465
503,1.72991452991453
504,1.7445177045177045
505,1.7535042735042734
506,1.7703540903540904
507,1.775970695970696
508,1.811916971916972
509,1.8152869352869352
510,1.8164102564102564
511,1.7984371184371184
512,1.795067155067155
513,1.7916971916971918
514,1.7714774114774114
515,1.768107448107448
516,1.7669841269841269
517,1.7478876678876678
518,1.7344078144078143
519,1.7254212454212454
520,1.722051282051282
521,1.7344078144078143
522,1.7726007326007327
523,1.777094017094017
524,1.7658608058608058
525,1.7557509157509157
526,1.768107448107448
527,1.7860805860805862
528,1.7366544566544566
529,1.7287912087912087
530,1.7467643467643468
531,1.75013431013431
532,1.7624908424908423
533,1.811916971916972
534,1.8388766788766788
535,1.8534798534798536
536,1.8624664224664225
537,1.8703296703296703
538,1.8635897435897435
539,1.842246642246642
540,1.8613431013431012
541,1.8456166056166057
542,1.8343833943833945
543,1.81978021978022
544,1.8018070818070815
545,1.7726007326007327
546,1.705201465201465
547,1.7175579975579975
548,1.777094017094017
549,1.804053724053724
550,1.8085470085470088
551,1.7984371184371184
552,1.7714774114774114
553,1.7984371184371184
554,2.0545543345543344
555,2.584761904761905
556,3.1385592185592186
557,3.360976800976801
558,3.116092796092796
559,2.6836141636141635
560,2.191599511599512
561,1.8804395604395605
562,1.704078144078144
563,1.5894993894993894
564,1.5715262515262516
565,1.592869352869353
566,1.574896214896215
567,1.547936507936508
568,1.5524297924297925
569,1.5557997557997558
570,1.5625396825396825
571,1.568156288156288
572,1.565909645909646
573,1.5715262515262516
574,1.565909645909646
575,1.5524297924297925
576,1.5445665445665446
577,1.5445665445665446
578,1.5591697191697191
579,1.5636630036630037
580,1.5726495726495726
581,1.576019536019536
582,1.568156288156288
583,1.576019536019536
584,1.593992673992674
585,1.5704029304029303
586,1.5007570207570209
587,1.5097435897435898
588,1.5344566544566545
589,1.5557997557997558
590,1.5962393162393165
591,1.6220757020757022
592,1.6164590964590964
593,1.631062271062271
594,1.6557753357753358
595,1.6748717948717948
596,1.6872283272283273
597,1.6962148962148962
598,1.7018315018315018
599,1.6973382173382174
600,1.6883516483516483
601,1.6973382173382174
602,1.7265445665445665
603,1.74002442002442
604,1.7344078144078143
605,1.72991452991453
606,1.7265445665445665
607,1.7198046398046398
608,1.710818070818071
609,1.7096947496947497
610,1.7198046398046398
611,1.7344078144078143
612,1.7287912087912087
613,1.704078144078144
614,1.678241758241758
615,1.6737484737484738
616,1.667008547008547
617,1.6636385836385836
618,1.6883516483516483
619,1.7175579975579975
620,1.7007081807081808
621,1.6928449328449329
622,1.6973382173382174
623,1.684981684981685
624,1.6928449328449329
625,1.7355311355311356
626,1.757997557997558
627,1.7445177045177045
628,1.7411477411477412
629,1.7085714285714286
630,1.6647619047619049
631,1.656898656898657
632,1.6973382173382174
633,1.7422710622710622
634,1.7546275946275949
635,1.7478876678876678
636,1.749010989010989
637,1.737777777777778
638,1.7254212454212454
639,1.711941391941392
640,1.7164346764346765
641,1.72991452991453
642,1.7478876678876678
643,1.757997557997558
644,1.7535042735042734
645,1.7344078144078143
646,1.7186813186813186
647,1.705201465201465
648,1.6995848595848595
649,1.7242979242979244
650,1.7467643467643468
651,1.75013431013431
652,1.7366544566544566
653,1.74002442002442
654,1.749010989010989
655,1.757997557997558
656,1.7456410256410255
657,1.737777777777778
658,1.7018315018315018
659,1.7074481074481074
660,1.7276678876678877
661,1.7445177045177045
662,1.7478876678876678
663,1.74002442002442
664,1.7411477411477412
665,1.7344078144078143
666,1.7254212454212454
667,1.7456410256410255
668,1.7613675213675213
669,1.7422710622710622
670,1.7411477411477412
671,1.775970695970696
672,1.7995604395604397
673,1.8063003663003665
674,1.7939438339438338
675,1.777094017094017
676,1.784957264957265
677,1.7546275946275949
678,1.7242979242979244
679,1.7332844932844933
680,1.7478876678876678
681,1.7669841269841269
682,1.7804639804639804
683,1.795067155067155
684,1.7872039072039072
685,1.823150183150183
686,1.8635897435897435
687,1.881562881562881
688,1.895042735042735
689,1.8984126984126983
690,1.8781929181929184
691,1.8523565323565323
692,1.8287667887667889
693,1.802930402930403
694,1.7748473748473748
695,1.7624908424908423
696,1.7602442002442005
697,1.7546275946275949
698,1.7512576312576311
699,1.757997557997558
700,1.7827106227106226
701,1.7669841269841269
702,1.7242979242979244
703,1.756874236874237
704,2.01973137973138
705,2.571282051282051
706,3.1374358974358976
707,3.387936507936508
708,3.167765567765568
709,2.781343101343101
710,2.278095238095238
711,1.9366056166056167
712,1.7231746031746031
713,1.615335775335775
714,1.5771428571428572
715,1.5883760683760684
716,1.5951159951159952
717,1.5838827838827838
718,1.568156288156288
719,1.558046398046398
720,1.5513064713064713
721,1.5546764346764346
722,1.5614163614163614
723,1.5524297924297925
724,1.5333333333333334
725,1.5513064713064713
726,1.5513064713064713
727,1.5614163614163614
728,1.574896214896215
729,1.5894993894993894
730,1.585006105006105
731,1.585006105006105
732,1.5962393162393165
733,1.5917460317460317
734,1.585006105006105
735,1.5367032967032968
736,1.5378266178266178
737,1.558046398046398
738,1.5591697191697191
739,1.568156288156288
740,1.5827594627594628
741,1.5984859584859583
742,1.6074725274725274
743,1.61982905982906
744,1.6378021978021975
745,1.6557753357753358
746,1.6512820512820512
747,1.677118437118437
748,1.7085714285714286
749,1.7164346764346765
750,1.7198046398046398
751,1.7355311355311356
752,1.738901098901099
753,1.7445177045177045
754,1.7478876678876678
755,1.737777777777778
756,1.7433943833943837
757,1.7658608058608058
758,1.7512576312576311
759,1.737777777777778
760,1.7231746031746031
761,1.7007081807081808
762,1.683858363858364
763,1.6950915750915752
764,1.7141880341880342
765,1.7276678876678877
766,1.7276678876678877
767,1.7242979242979244
768,1.7074481074481074
769,1.704078144078144
770,1.713064713064713
771,1.7175579975579975
772,1.7074481074481074
773,1.710818070818071
774,1.7085714285714286
775,1.6804884004884004
776,1.6602686202686203
777,1.6883516483516483
778,1.74002442002442
779,1.7546275946275949
780,1.7186813186813186
781,1.7242979242979244
782,1.74002442002442
783,1.7411477411477412
784,1.7186813186813186
785,1.711941391941392
786,1.7153113553113553
787,1.7164346764346765
788,1.7074481074481074
789,1.7063247863247863
790,1.7141880341880342
791,1.7287912087912087
792,1.731037851037851
793,1.7276678876678877
794,1.7411477411477412
795,1.738901098901099
796,1.7198046398046398
797,1.7074481074481074
798,1.6962148962148962
799,1.7074481074481074
800,1.7355311355311356
801,1.7164346764346765
802,1.7074481074481074
803,1.722051282051282
804,1.7265445665445665
805,1.7321611721611725
806,1.7355311355311356
807,1.7512576312576311
808,1.7782173382173383
809,1.7815873015873016
810,1.7591208791208792
811,1.7411477411477412
812,1.7153113553113553
813,1.6950915750915752
814,1.7074481074481074
815,1.7018315018315018
816,1.711941391941392
817,1.7456410256410255
818,1.777094017094017
819,1.768107448107448
820,1.757997557997558
821,1.7546275946275949
822,1.7467643467643468
823,1.738901098901099
824,1.7647374847374848
825,1.7883272283272282
826,1.7827106227106226
827,1.7624908424908423
828,1.7512576312576311
829,1.7186813186813186
830,1.6905982905982906
831,1.6894749694749696
832,1.713064713064713
833,1.749010989010989
834,1.7995604395604397
835,1.82989010989011
836,1.847863247863248
837,1.8433699633699636
838,1.8703296703296703
839,1.8781929181929184
840,1.847863247863248
841,1.8388766788766788
842,1.804053724053724
843,1.7782173382173383
844,1.779340659340659
845,1.7692307692307692
846,1.756874236874237
847,1.757997557997558
848,1.7557509157509157
849,1.7411477411477412
850,1.756874236874237
851,1.777094017094017
852,1.811916971916972
853,1.7872039072039072
854,1.7624908424908423
855,1.81978021978022
856,2.1713797313797314
857,2.7847130647130647
858,3.216068376068376
859,3.2553846153846155
860,2.94984126984127
861,2.5364590964590965
862,2.0905006105006105
863,1.8287667887667889
864,1.713064713064713
865,1.638925518925519
866,1.5838827838827838
867,1.5827594627594628
868,1.604102564102564
869,1.586129426129426
870,1.592869352869353
871,1.5513064713064713
872,1.5524297924297925
873,1.565909645909646
874,1.5625396825396825
875,1.546813186813187
876,1.5625396825396825
877,1.576019536019536
878,1.5692796092796093
879,1.5614163614163614
880,1.5793894993894997
881,1.568156288156288
882,1.573772893772894
883,1.5569230769230769
884,1.5614163614163614
885,1.568156288156288
886,1.5524297924297925
887,1.538949938949939
888,1.5333333333333334
889,1.549059829059829
890,1.5524297924297925
891,1.5625396825396825
892,1.5951159951159952
893,1.6243223443223442
894,1.631062271062271
895,1.6333089133089134
896,1.6378021978021975
897,1.647912087912088
898,1.631062271062271
899,1.636678876678877
900,1.6276923076923078
901,1.659145299145299
902,1.722051282051282
903,1.7456410256410255
904,1.7265445665445665
905,1.7433943833943837
906,1.7456410256410255
907,1.7445177045177045
908,1.7276678876678877
909,1.731037851037851
910,1.731037851037851
911,1.7546275946275949
912,1.7321611721611725
913,1.6962148962148962
914,1.678241758241758
915,1.6726251526251523
916,1.6535286935286937
917,1.6288156288156288
918,1.6692551892551892
919,1.738901098901099
920,1.74002442002442
921,1.7321611721611725
922,1.7007081807081808
923,1.6557753357753358
924,1.6411721611721612
925,1.6748717948717948
926,1.711941391941392
927,1.7456410256410255
928,1.7456410256410255
929,1.7153113553113553
930,1.6804884004884004
931,1.665885225885226
932,1.678241758241758
933,1.6535286935286937
934,1.6602686202686203
935,1.702954822954823
936,1.7456410256410255
937,1.7658608058608058
938,1.7512576312576311
939,1.7355311355311356
940,1.7366544566544566
941,1.7445177045177045
942,1.7602442002442005
943,1.7535042735042734
944,1.7456410256410255
945,1.74002442002442
946,1.7355311355311356
947,1.731037851037851
948,1.7164346764346765
949,1.711941391941392
950,1.7164346764346765
951,1.737777777777778
952,1.7478876678876678
953,1.7602442002442005
954,1.7433943833943837
955,1.7141880341880342
956,1.6962148962148962
957,1.74002442002442
958,1.7692307692307692
959,1.7726007326007327
960,1.7624908424908423
961,1.7535042735042734
962,1.757997557997558
963,1.7198046398046398
964,1.705201465201465
965,1.7254212454212454
966,1.7546275946275949
967,1.7726007326007327
968,1.8051770451770448
969,1.7939438339438338
970,1.7804639804639804
971,1.7692307692307692
972,1.7669841269841269
973,1.7714774114774114
974,1.7703540903540904
975,1.7636141636141636
976,1.7456410256410255
977,1.7344078144078143
978,1.7209279609279609
979,1.7355311355311356
980,1.7860805860805862
981,1.8388766788766788
982,1.893919413919414
983,1.9006593406593408
984,1.8961660561660565
985,1.875946275946276
986,1.8388766788766788
987,1.811916971916972
988,1.8107936507936508
989,1.82989010989011
990,1.8164102564102564
991,1.800683760683761
992,1.7905738705738703
993,1.7658608058608058
994,1.7546275946275949
995,1.7433943833943837
996,1.7535042735042734
997,1.7894505494505497
998,1.7748473748473748
999,1.756874236874237
1000,1.8444932844932844
1001,2.175873015873016
1002,2.7577533577533577
1003,3.262124542124542
1004,3.398046398046398
1005,3.083516483516484
1006,2.635311355311355
1007,2.159023199023199
1008,1.874822954822955
1009,1.7074481074481074
1010,1.6422954822954825
1011,1.5782661782661782
1012,1.5838827838827838
1013,1.6085958485958487
1014,1.6018559218559218
1015,1.5805128205128205
1016,1.576019536019536
1017,1.5546764346764346
1018,1.5367032967032968
1019,1.5378266178266178
1020,1.5513064713064713
1021,1.5501831501831502
1022,1.5513064713064713
1023,1.5557997557997558
1024,1.5704029304029303
1025,1.5793894993894997
1026,1.5771428571428572
1027,1.5726495726495726
1028,1.567032967032967
1029,1.5423199023199023
1030,1.5501831501831502
1031,1.574896214896215
1032,1.5805128205128205
1033,1.592869352869353
1034,1.6063492063492064
1035,1.6052258852258852
1036,1.592869352869353
1037,1.5962393162393165
1038,1.604102564102564
1039,1.615335775335775
1040,1.5917460317460317
1041,1.6142124542124543
1042,1.6647619047619049
1043,1.6804884004884004
1044,1.675995115995116
1045,1.6692551892551892
1046,1.667008547008547
1047,1.6715018315018315
1048,1.7007081807081808
1049,1.7692307692307692
1050,1.8018070818070815
1051,1.796190476190476
1052,1.7995604395604397
1053,1.802930402930403
1054,1.8018070818070815
1055,1.7557509157509157
1056,1.6928449328449329
1057,1.6490354090354091
1058,1.6602686202686203
1059,1.6636385836385836
1060,1.6748717948717948
1061,1.6748717948717948
1062,1.6681318681318682
1063,1.686105006105006
1064,1.7164346764346765
1065,1.731037851037851
1066,1.7478876678876678
1067,1.7456410256410255
1068,1.7366544566544566
1069,1.6917216117216116
1070,1.6872283272283273
1071,1.704078144078144
1072,1.74002442002442
1073,1.7557509157509157
1074,1.7602442002442005
1075,1.7467643467643468
1076,1.6984615384615385
1077,1.6501587301587302
1078,1.6445421245421246
1079,1.6411721611721612
1080,1.6827350427350427
1081,1.710818070818071
1082,1.6973382173382174
1083,1.693968253968254
1084,1.6894749694749696
1085,1.675995115995116
1086,1.6816117216117217
1087,1.7007081807081808
1088,1.711941391941392
1089,1.7422710622710622
1090,1.7512576312576311
1091,1.7456410256410255
1092,1.8332600732600728
1093,2.191599511599512
1094,2.7105738705738704
1095,3.198095238095238
1096,3.318290598290598
1097,3.040830280830281
1098,2.516239316239316
1099,2.089377289377289
1100,1.822026862026862
1101,1.665885225885226
1102,1.5883760683760684
1103,1.5692796092796093
1104,1.592869352869353
1105,1.61982905982906
1106,1.611965811965812
1107,1.6085958485958487
1108,1.5917460317460317
1109,1.5715262515262516
1110,1.585006105006105
1111,1.586129426129426
1112,1.5838827838827838
1113,1.5456898656898657
1114,1.52996336996337
1115,1.5243467643467643
1116,1.511990231990232
1117,1.5108669108669108
1118,1.54007326007326
1119,1.5838827838827838
1120,1.6175824175824176
1121,1.6276923076923078
1122,1.6164590964590964
1123,1.613089133089133
1124,1.5827594627594628
1125,1.5636630036630037
1126,1.52996336996337
1127,1.5378266178266178
1128,1.541196581196581
1129,1.5097435897435898
1130,1.558046398046398
1131,1.6254456654456657
1132,1.6422954822954825
1133,1.6445421245421246
1134,1.6512820512820512
1135,1.659145299145299
1136,1.656898656898657
1137,1.6625152625152626
1138,1.667008547008547
1139,1.656898656898657
1140,1.6456654456654456
1141,1.665885225885226
1142,1.6524053724053724
1143,1.6220757020757022
1144,1.6726251526251523
1145,1.72991452991453
1146,1.7276678876678877
1147,1.7018315018315018
1148,1.6793650793650794
1149,1.6703785103785105
1150,1.6557753357753358
1151,1.6456654456654456
1152,1.6333089133089134
1153,1.6265689865689863
1154,1.6299389499389498
1155,1.638925518925519
1156,1.6220757020757022
1157,1.6220757020757022
1158,1.6231990231990232
1159,1.64004884004884
1160,1.6647619047619049
1161,1.7085714285714286
1162,1.7175579975579975
1163,1.693968253968254
1164,1.684981684981685
1165,1.6748717948717948
1166,1.684981684981685
1167,1.6995848595848595
1168,1.710818070818071
1169,1.722051282051282
1170,1.722051282051282
1171,1.7141880341880342
1172,1.6793650793650794
1173,1.6883516483516483
1174,1.6692551892551892
1175,1.6816117216117217
1176,1.6973382173382174
1177,1.7153113553113553
1178,1.7287912087912087
1179,1.7411477411477412
1180,1.7467643467643468
1181,1.7355311355311356
1182,1.711941391941392
1183,1.6804884004884004
1184,1.7063247863247863
1185,1.7445177045177045
1186,1.7658608058608058
1187,1.7613675213675213
1188,1.7366544566544566
1189,1.7456410256410255
1190,1.738901098901099
1191,1.7096947496947497
1192,1.6804884004884004
1193,1.683858363858364
1194,1.7276678876678877
1195,1.7636141636141636
1196,1.7433943833943837
1197,1.7422710622710622
1198,1.7714774114774114
1199,1.7748473748473748
1200,1.7692307692307692
1201,1.7624908424908423
1202,1.7636141636141636
1203,1.7692307692307692
1204,1.7703540903540904
1205,1.7535042735042734
1206,1.7332844932844933
1207,1.722051282051282
1208,1.710818070818071
1209,1.7153113553113553
1210,1.72991452991453
1211,1.7445177045177045
1212,1.7546275946275949
1213,1.7557509157509157
1214,1.7433943833943837
1215,1.75013431013431
1216,1.7692307692307692
1217,1.7883272283272282
1218,1.7894505494505497
1219,1.7928205128205128
1220,1.7916971916971918
1221,1.775970695970696
1222,1.7883272283272282
1223,1.7883272283272282
1224,1.7916971916971918
1225,1.7905738705738703
1226,1.7636141636141636
1227,1.722051282051282
1228,1.713064713064713
1229,1.6984615384615385
1230,1.7175579975579975
1231,1.7512576312576311
1232,1.7557509157509157
1233,1.7714774114774114
1234,1.7815873015873016
1235,1.7905738705738703
1236,1.7928205128205128
1237,1.784957264957265
1238,1.7782173382173383
1239,1.7613675213675213
1240,1.7737240537240535
1241,1.7782173382173383
1242,1.757997557997558
1243,1.7287912087912087
1244,1.7186813186813186
1245,1.722051282051282
1246,1.7074481074481074
1247,1.6883516483516483
1248,1.7153113553113553
1249,1.757997557997558
1250,1.775970695970696
1251,1.7737240537240535
1252,1.7557509157509157
1253,1.7512576312576311
1254,1.7523809523809524
1255,1.731037851037851
1256,1.7546275946275949
1257,1.8152869352869352
1258,1.866959706959707
1259,1.89953601953602
1260,1.895042735042735
1261,1.874822954822955
1262,1.8894261294261292
1263,1.874822954822955
1264,1.8377533577533576
1265,1.7984371184371184
1266,1.7737240537240535
1267,1.7433943833943837
1268,1.72991452991453
1269,1.7186813186813186
1270,1.7007081807081808
1271,1.7074481074481074
1272,1.7523809523809524
1273,1.7669841269841269
1274,1.7186813186813186
1275,1.702954822954823
1276,1.804053724053724
1277,2.133186813186813
1278,2.751013431013431
1279,3.253137973137973
1280,3.36996336996337
1281,3.035213675213676
1282,2.606105006105006
1283,2.173626373626373
1284,1.8972893772893773
1285,1.7355311355311356
1286,1.6737484737484738
1287,1.6378021978021975
1288,1.6063492063492064
1289,1.593992673992674
1290,1.5962393162393165
1291,1.5838827838827838
1292,1.5625396825396825
1293,1.5501831501831502
1294,1.5333333333333334
1295,1.51985347985348
1296,1.5277167277167276
1297,1.5726495726495726
1298,1.5951159951159952
1299,1.6108424908424908
1300,1.6029792429792429
1301,1.574896214896215
1302,1.549059829059829
1303,1.5625396825396825
1304,1.5816361416361415
1305,1.593992673992674
1306,1.6007326007326008
1307,1.6164590964590964
1308,1.6299389499389498
1309,1.6344322344322344
1310,1.6524053724053724
1311,1.6445421245421246
1312,1.6344322344322344
1313,1.6254456654456657
1314,1.593992673992674
1315,1.573772893772894
1316,1.5973626373626373
1317,1.6512820512820512
1318,1.7096947496947497
1319,1.7209279609279609
1320,1.7063247863247863
1321,1.6962148962148962
1322,1.6962148962148962
1323,1.6984615384615385
1324,1.6962148962148962
1325,1.6804884004884004
1326,1.6804884004884004
1327,1.7411477411477412
1328,1.7916971916971918
1329,1.796190476190476
1330,1.7883272283272282
1331,1.820903540903541
1332,1.831013431013431
1333,1.813040293040293
1334,1.8186568986568987
1335,1.8186568986568987
1336,1.8074236874236875
1337,1.7827106227106226
1338,1.7726007326007327
1339,1.7804639804639804
1340,1.7546275946275949
1341,1.705201465201465
1342,1.6681318681318682
1343,1.686105006105006
1344,1.702954822954823
1345,1.7422710622710622
1346,1.7546275946275949
1347,1.7535042735042734
1348,1.7804639804639804
1349,1.7782173382173383
1350,1.7726007326007327
1351,1.7726007326007327
1352,1.7523809523809524
1353,1.722051282051282
1354,1.731037851037851
1355,1.7636141636141636
1356,1.775970695970696
1357,1.7714774114774114
1358,1.7411477411477412
1359,1.705201465201465
1360,1.6905982905982906
1361,1.768107448107448
1362,1.9433455433455435
1363,1.8894261294261292
1364,1.6456654456654456
1365,1.422124542124542
1366,1.2817094017094015
1367,1.1570207570207571
1368,1.0210989010989011
1369,0.948083028083028
1370,0.9031501831501833
1371,0.9581929181929182
1372,1.1828571428571428
1373,1.4367277167277168
1374,1.737777777777778
1375,1.8804395604395605
1376,1.927619047619048
1377,1.9107692307692308
1378,1.9107692307692308
1379,1.963565323565324
1380,1.995018315018315
1381,2.002881562881563
1382,1.9995115995115995
1383,1.993894993894994
1384,1.991648351648352
1385,1.9882783882783883
1386,1.9882783882783883
1387,1.993894993894994
1388,2.0152380952380957
1389,2.056800976800977
1390,2.0882539682539685
1391,2.0905006105006105
1392,2.121953601953602
1393,2.141050061050061
1394,2.1713797313797314
1395,2.19946275946276
1396,2.2208058608058607
1397,2.2533821733821733
1398,2.283711843711844
1399,2.2814652014652013
1400,2.285958485958486
1401,2.311794871794872
1402,2.369084249084249
1403,2.431990231990232
1404,2.4623199023199023
1405,2.431990231990232
1406,2.3825641025641024
1407,2.36009768009768
1408,2.300561660561661
1409,2.2219291819291818
1410,2.155653235653236
1411,2.061294261294261
1412,1.966935286935287
1413,1.8972893772893773
1414,1.8051770451770448
1415,1.7433943833943837
1416,1.7332844932844933
1417,1.7153113553113553
1418,1.6512820512820512
1419,1.615335775335775
1420,1.632185592185592
1421,1.638925518925519
1422,1.6378021978021975
1423,1.620952380952381
1424,1.5883760683760684
1425,1.5816361416361415
1426,1.576019536019536
1427,1.565909645909646
1428,1.568156288156288
1429,1.5872527472527471
1430,1.5894993894993894
1431,1.5782661782661782
1432,1.5838827838827838
1433,1.576019536019536
1434,1.576019536019536
1435,1.6175824175824176
1436,1.6490354090354091
1437,1.6647619047619049
1438,1.6512820512820512
1439,1.6378021978021975
1440,1.636678876678877
1441,1.6276923076923078
1442,1.6355555555555557
1443,1.6187057387057386
1444,1.6074725274725274
1445,1.61982905982906
1446,1.6243223443223442
1447,1.6052258852258852
1448,1.604102564102564
1449,1.611965811965812
1450,1.632185592185592
1451,1.6501587301587302
1452,1.6681318681318682
1453,1.6512820512820512
1454,1.6647619047619049
1455,1.667008547008547
1456,1.6557753357753358
1457,1.6276923076923078
1458,1.6265689865689863
1459,1.647912087912088
1460,1.6625152625152626
1461,1.6647619047619049
1462,1.6524053724053724
1463,1.6625152625152626
1464,1.6681318681318682
1465,1.6613919413919414
1466,1.6557753357753358
1467,1.6512820512820512
1468,1.6490354090354091
1469,1.6355555555555557
1470,1.6411721611721612
1471,1.647912087912088
1472,1.6557753357753358
1473,1.6715018315018315
1474,1.6973382173382174
1475,1.6894749694749696
1476,1.6872283272283273
1477,1.6962148962148962
1478,1.6928449328449329
1479,1.675995115995116
1480,1.6524053724053724
1481,1.6625152625152626
1482,1.677118437118437
1483,1.6748717948717948
1484,1.683858363858364
1485,1.7018315018315018
1486,1.6984615384615385
1487,1.704078144078144
1488,1.7063247863247863
1489,1.7141880341880342
1490,1.7198046398046398
1491,1.7209279609279609
1492,1.704078144078144
1493,1.677118437118437
1494,1.665885225885226
1495,1.6501587301587302
1496,1.647912087912088
1497,1.636678876678877
1498,1.6905982905982906
1499,1.757997557997558
1500,1.784957264957265
1501,1.756874236874237
1502,1.7209279609279609
1503,1.658021978021978
1504,1.6344322344322344
1505,1.6636385836385836
1506,1.7276678876678877
1507,1.7186813186813186
1508,1.711941391941392
1509,1.7535042735042734
1510,1.7692307692307692
1511,1.7467643467643468
1512,1.737777777777778
1513,1.777094017094017
1514,1.8063003663003665
1515,1.8175335775335772
1516,1.8141636141636144
1517,1.8186568986568987
1518,1.779340659340659
1519,1.7546275946275949
1520,1.7433943833943837
1521,1.7018315018315018
1522,1.6737484737484738
1523,1.7231746031746031
1524,1.7535042735042734
1525,1.757997557997558
1526,1.75013431013431
1527,1.7433943833943837
1528,1.7467643467643468
1529,1.7512576312576311
1530,1.756874236874237
1531,1.7164346764346765
1532,1.6827350427350427
1533,1.8096703296703296
1534,2.201709401709402
1535,2.7858363858363857
1536,3.223931623931624
1537,3.276727716727717
1538,2.95995115995116
1539,2.494896214896215
1540,2.056800976800977
1541,1.7995604395604397
1542,1.6737484737484738
1543,1.6085958485958487
1544,1.585006105006105
1545,1.5602930402930404
1546,1.5367032967032968
1547,1.514236874236874
1548,1.4906471306471307
1549,1.4895238095238097
1550,1.468180708180708
1551,1.4457142857142855
1552,1.451330891330891
1553,1.467057387057387
1554,1.4884004884004884
1555,1.5041269841269842
1556,1.5086202686202683
1557,1.4861538461538462
1558,1.4895238095238097
1559,1.501880341880342
1560,1.5187301587301587
1561,1.5344566544566545
1562,1.52996336996337
1563,1.5322100122100122
1564,1.5378266178266178
1565,1.5322100122100122
1566,1.5310866910866912
1567,1.5378266178266178
1568,1.5232234432234433
1569,1.5153601953601954
1570,1.494017094017094
1571,1.4996336996336996
1572,1.467057387057387
1573,1.4928937728937728
1574,1.5524297924297925
1575,1.5805128205128205
1576,1.5973626373626373
1577,1.620952380952381
1578,1.6029792429792429
1579,1.5793894993894997
1580,1.5906227106227109
1581,1.6142124542124543
1582,1.6344322344322344
1583,1.6501587301587302
1584,1.6748717948717948
1585,1.6984615384615385
1586,1.7186813186813186
1587,1.7074481074481074
1588,1.686105006105006
1589,1.6726251526251523
1590,1.7018315018315018
1591,1.7198046398046398
1592,1.737777777777778
1593,1.705201465201465
1594,1.6625152625152626
1595,1.6748717948717948
1596,1.710818070818071
1597,1.7254212454212454
1598,1.7231746031746031
1599,1.7422710622710622
1600,1.7782173382173383
1601,1.777094017094017
1602,1.7456410256410255
1603,1.7164346764346765
1604,1.7141880341880342
1605,1.72991452991453
1606,1.7198046398046398
1607,1.6793650793650794
1608,1.6726251526251523
1609,1.6995848595848595
1610,1.7422710622710622
1611,1.7658608058608058
1612,1.7692307692307692
1613,1.7714774114774114
1614,1.7512576312576311
1615,1.7433943833943837
1616,1.7456410256410255
1617,1.7366544566544566
1618,1.7186813186813186
1619,1.678241758241758
1620,1.6737484737484738
1621,1.6973382173382174
1622,1.705201465201465
1623,1.7141880341880342
1624,1.7175579975579975
1625,1.7276678876678877
1626,1.74002442002442
1627,1.7827106227106226
1628,1.7995604395604397
1629,1.8085470085470088
1630,1.7916971916971918
1631,1.7748473748473748
1632,1.75013431013431
1633,1.7321611721611725
1634,1.7366544566544566
1635,1.7411477411477412
1636,1.722051282051282
1637,1.7456410256410255
1638,1.7726007326007327
1639,1.7557509157509157
1640,1.7265445665445665
1641,1.7366544566544566
1642,1.7591208791208792
1643,1.7512576312576311
1644,1.7366544566544566
1645,1.7433943833943837
1646,1.7512576312576311
1647,1.768107448107448
1648,1.8141636141636144
1649,1.8355067155067155
1650,1.8456166056166057
1651,1.822026862026862
1652,1.8388766788766788
1653,1.868083028083028
1654,1.8849328449328449
1655,1.8658363858363856
1656,1.8388766788766788
1657,1.84
1658,1.8343833943833945
1659,1.8287667887667889
1660,1.8164102564102564
1661,1.8085470085470088
1662,1.7905738705738703
1663,1.7624908424908423
1664,1.7647374847374848
1665,1.802930402930403
1666,1.8141636141636144
1667,1.749010989010989
1668,1.7186813186813186
1669,1.8051770451770448
1670,2.185982905982906
1671,2.806056166056166
1672,3.254261294261294
1673,3.2947008547008547
1674,2.9475946275946274
1675,2.5622954822954824
1676,2.175873015873016
1677,1.9006593406593408
1678,1.7512576312576311
1679,1.675995115995116
1680,1.6422954822954825
1681,1.6265689865689863
1682,1.6299389499389498
1683,1.6254456654456657
1684,1.5962393162393165
1685,1.565909645909646
1686,1.5872527472527471
1687,1.611965811965812
1688,1.632185592185592
1689,1.6557753357753358
1690,1.6625152625152626
1691,1.6726251526251523
1692,1.6872283272283273
1693,1.6692551892551892
1694,1.6265689865689863
1695,1.613089133089133
1696,1.6085958485958487
1697,1.6018559218559218
1698,1.620952380952381
1699,1.6501587301587302
1700,1.6793650793650794
1701,1.6905982905982906
1702,1.693968253968254
1703,1.6737484737484738
1704,1.6625152625152626
1705,1.6647619047619049
1706,1.6883516483516483
1707,1.7018315018315018
1708,1.6950915750915752
1709,1.675995115995116
1710,1.6748717948717948
1711,1.6827350427350427
1712,1.7287912087912087
1713,1.757997557997558
1714,1.7703540903540904
1715,1.7782173382173383
1716,1.7714774114774114
1717,1.7726007326007327
1718,1.795067155067155
1719,1.8355067155067155
1720,1.8703296703296703
1721,1.855726495726496
1722,1.8164102564102564
1723,1.802930402930403
1724,1.7804639804639804
1725,1.7613675213675213
1726,1.7411477411477412
1727,1.731037851037851
1728,1.7332844932844933
1729,1.7321611721611725
1730,1.7478876678876678
1731,1.737777777777778
1732,1.7209279609279609
1733,1.7276678876678877
1734,1.749010989010989
1735,1.777094017094017
1736,1.779340659340659
1737,1.756874236874237
1738,1.737777777777778
1739,1.7478876678876678
1740,1.74002442002442
1741,1.7164346764346765
1742,1.7164346764346765
1743,1.7287912087912087
1744,1.7344078144078143
1745,1.757997557997558
1746,1.7827106227106226
1747,1.7692307692307692
1748,1.784957264957265
1749,1.784957264957265
1750,1.757997557997558
1751,1.7512576312576311
1752,1.7613675213675213
1753,1.7636141636141636
1754,1.7478876678876678
1755,1.738901098901099
1756,1.7366544566544566
1757,1.7063247863247863
1758,1.713064713064713
1759,1.7478876678876678
1760,1.784957264957265
1761,1.800683760683761
1762,1.813040293040293
1763,1.832136752136752
1764,1.8152869352869352
1765,1.7647374847374848
1766,1.7344078144078143
1767,1.7321611721611725
1768,1.7591208791208792
1769,1.7804639804639804
1770,1.7714774114774114
1771,1.7726007326007327
1772,1.768107448107448
1773,1.757997557997558
1774,1.784957264957265
1775,1.8265201465201464
1776,1.8051770451770448
1777,1.7905738705738703
1778,1.7748473748473748
1779,1.7636141636141636
1780,1.775970695970696
1781,1.7737240537240535
1782,1.7445177045177045
1783,1.7669841269841269
1784,1.811916971916972
1785,1.8826862026862028
1786,1.9253724053724053
1787,1.9332356532356527
1788,1.9242490842490845
1789,1.922002442002442
1790,1.874822954822955
1791,1.8568498168498169
1792,1.8388766788766788
1793,1.804053724053724
1794,1.7782173382173383
1795,1.7928205128205128
1796,1.7995604395604397
1797,1.775970695970696
1798,1.7669841269841269
1799,1.7658608058608058
1800,1.7636141636141636
1801,1.7624908424908423
1802,1.784957264957265
1803,1.7815873015873016
1804,1.8074236874236875
1805,1.9972649572649568
1806,2.3836874236874235
1807,2.9655677655677657
1808,3.36996336996337
1809,3.337387057387057
1810,2.952087912087912
1811,2.3836874236874235
1812,1.955702075702076
1813,1.7557509157509157
1814,1.656898656898657
1815,1.5883760683760684
1816,1.6108424908424908
1817,1.659145299145299
1818,1.6748717948717948
1819,1.6557753357753358
1820,1.620952380952381
1821,1.5894993894993894
1822,1.5771428571428572
1823,1.5704029304029303
1824,1.5591697191697191
1825,1.5434432234432234
1826,1.5445665445665446
1827,1.5647863247863247
1828,1.5883760683760684
1829,1.5951159951159952
1830,1.5771428571428572
1831,1.567032967032967
1832,1.576019536019536
1833,1.5984859584859583
1834,1.574896214896215
1835,1.5793894993894997
1836,1.611965811965812
1837,1.6265689865689863
1838,1.6243223443223442
1839,1.5827594627594628
1840,1.5917460317460317
1841,1.6276923076923078
1842,1.6490354090354091
1843,1.6524053724053724
1844,1.6535286935286937
1845,1.6557753357753358
1846,1.677118437118437
1847,1.6883516483516483
1848,1.686105006105006
1849,1.6804884004884004
1850,1.6816117216117217
1851,1.6827350427350427
1852,1.6872283272283273
1853,1.6995848595848595
1854,1.693968253968254
1855,1.6962148962148962
1856,1.7096947496947497
1857,1.7467643467643468
1858,1.7456410256410255
1859,1.7242979242979244
1860,1.6950915750915752
1861,1.658021978021978
1862,1.6018559218559218
1863,1.5917460317460317
1864,1.6490354090354091
1865,1.7231746031746031
1866,1.7478876678876678
1867,1.7546275946275949
1868,1.7231746031746031
1869,1.6950915750915752
1870,1.6804884004884004
1871,1.6681318681318682
1872,1.6535286935286937
1873,1.675995115995116
1874,1.6793650793650794
1875,1.6984615384615385
1876,1.7007081807081808
1877,1.6962148962148962
1878,1.704078144078144
1879,1.6894749694749696
1880,1.6995848595848595
1881,1.713064713064713
1882,1.7085714285714286
1883,1.6816117216117217
1884,1.6827350427350427
1885,1.6984615384615385
1886,1.711941391941392
1887,1.7287912087912087
1888,1.72991452991453
1889,1.7186813186813186
1890,1.6827350427350427
1891,1.6299389499389498
1892,1.5951159951159952
1893,1.604102564102564
1894,1.64004884004884
1895,1.6692551892551892
1896,1.6950915750915752
1897,1.710818070818071
1898,1.7007081807081808
1899,1.6984615384615385
1900,1.6962148962148962
1901,1.6950915750915752
1902,1.6984615384615385
1903,1.7433943833943837
1904,1.7467643467643468
1905,1.7198046398046398
1906,1.7231746031746031
1907,1.983785103785104
1908,2.517362637362637
1909,3.0003907203907203
1910,3.171135531135531
1911,3.01948717948718
1912,2.6723809523809523
1913,2.209572649572649
1914,1.874822954822955
1915,1.7366544566544566
1916,1.677118437118437
1917,1.659145299145299
1918,1.61982905982906
1919,1.6018559218559218
1920,1.6052258852258852
1921,1.5546764346764346
1922,1.520976800976801
1923,1.5277167277167276
1924,1.5164835164835164
1925,1.5344566544566545
1926,1.5805128205128205
1927,1.6265689865689863
1928,1.6243223443223442
1929,1.6074725274725274
1930,1.5917460317460317
1931,1.586129426129426
1932,1.573772893772894
1933,1.5782661782661782
1934,1.573772893772894
1935,1.5704029304029303
1936,1.573772893772894
1937,1.574896214896215
1938,1.5726495726495726
1939,1.5569230769230769
1940,1.5816361416361415
1941,1.5827594627594628
1942,1.574896214896215
1943,1.5726495726495726
1944,1.585006105006105
1945,1.6085958485958487
1946,1.6187057387057386
1947,1.631062271062271
1948,1.6512820512820512
1949,1.677118437118437
1950,1.677118437118437
1951,1.6928449328449329
1952,1.6827350427350427
1953,1.6894749694749696
1954,1.7096947496947497
1955,1.711941391941392
1956,1.713064713064713
1957,1.678241758241758
1958,1.6501587301587302
1959,1.665885225885226
1960,1.6647619047619049
1961,1.6512820512820512
1962,1.6052258852258852
1963,1.574896214896215
1964,1.6063492063492064
1965,1.6512820512820512
1966,1.6816117216117217
1967,1.6636385836385836
1968,1.64004884004884
1969,1.6445421245421246
1970,1.632185592185592
1971,1.5872527472527471
1972,1.5973626373626373
1973,1.6467887667887668
1974,1.6804884004884004
1975,1.683858363858364
1976,1.683858363858364
1977,1.6917216117216116
1978,1.6905982905982906
1979,1.6928449328449329
1980,1.678241758241758
1981,1.6804884004884004
1982,1.6883516483516483
1983,1.686105006105006
1984,1.6917216117216116
1985,1.6883516483516483
1986,1.678241758241758
1987,1.6995848595848595
1988,1.713064713064713
1989,1.7242979242979244
1990,1.702954822954823
1991,1.6995848595848595
1992,1.7007081807081808
1993,1.7209279609279609
1994,1.756874236874237
1995,1.777094017094017
1996,1.768107448107448
1997,1.7366544566544566
1998,1.7254212454212454
1999,1.737777777777778
