Index,II
0,1.848986568986569
1,1.8624664224664225
2,1.8523565323565323
3,1.842246642246642
4,1.8085470085470088
5,1.7804639804639804
6,1.7714774114774114
7,1.7546275946275949
8,1.7478876678876678
9,1.7445177045177045
10,1.7287912087912087
11,1.7096947496947497
12,1.7007081807081808
13,1.6816117216117217
14,1.6613919413919414
15,1.6737484737484738
16,1.893919413919414
17,2.427496947496948
18,3.066666666666667
19,3.4047863247863246
20,3.2475213675213674
21,2.813919413919414
22,2.3421245421245422
23,1.9163858363858364
24,1.7287912087912087
25,1.6501587301587302
26,1.6187057387057386
27,1.593992673992674
28,1.5771428571428572
29,1.549059829059829
30,1.5243467643467643
31,1.520976800976801
32,1.522100122100122
33,1.54007326007326
34,1.565909645909646
35,1.5951159951159952
36,1.6220757020757022
37,1.6288156288156288
38,1.620952380952381
39,1.6254456654456657
40,1.6074725274725274
41,1.5984859584859583
42,1.5951159951159952
43,1.5984859584859583
44,1.6018559218559218
45,1.6085958485958487
46,1.6074725274725274
47,1.61982905982906
48,1.6333089133089134
49,1.6344322344322344
50,1.64004884004884
51,1.6692551892551892
52,1.6804884004884004
53,1.6681318681318682
54,1.693968253968254
55,1.7153113553113553
56,1.7546275946275949
57,1.7636141636141636
58,1.7995604395604397
59,1.7984371184371184
60,1.811916971916972
61,1.8253968253968251
62,1.848986568986569
63,1.869206349206349
64,1.8635897435897435
65,1.8804395604395605
66,1.866959706959707
67,1.8456166056166057
68,1.8534798534798536
69,1.842246642246642
70,1.783833943833944
71,1.7703540903540904
72,1.7995604395604397
73,1.7984371184371184
74,1.775970695970696
75,1.7624908424908423
76,1.7433943833943837
77,1.7276678876678877
78,1.7242979242979244
79,1.7209279609279609
80,1.72991452991453
81,1.7254212454212454
82,1.6962148962148962
83,1.6872283272283273
84,1.6872283272283273
85,1.6995848595848595
86,1.704078144078144
87,1.693968253968254
88,1.7153113553113553
89,1.713064713064713
90,1.7141880341880342
91,1.713064713064713
92,1.704078144078144
93,1.6950915750915752
94,1.7198046398046398
95,1.7209279609279609
96,1.7175579975579975
97,1.737777777777778
98,1.756874236874237
99,1.7613675213675213
100,1.7355311355311356
101,1.7186813186813186
102,1.7186813186813186
103,1.7355311355311356
104,1.7265445665445665
105,1.713064713064713
106,1.711941391941392
107,1.7164346764346765
108,1.7186813186813186
109,1.7242979242979244
110,1.7242979242979244
111,1.7433943833943837
112,1.737777777777778
113,1.731037851037851
114,1.7321611721611725
115,1.7242979242979244
116,1.7164346764346765
117,1.722051282051282
118,1.711941391941392
119,1.7287912087912087
120,1.7332844932844933
121,1.74002442002442
122,1.7433943833943837
123,1.74002442002442
124,1.72991452991453
125,1.72991452991453
126,1.722051282051282
127,1.7287912087912087
128,1.7467643467643468
129,1.7344078144078143
130,1.7198046398046398
131,1.705201465201465
132,1.722051282051282
133,1.7276678876678877
134,1.7445177045177045
135,1.7411477411477412
136,1.749010989010989
137,1.738901098901099
138,1.7456410256410255
139,1.7647374847374848
140,1.779340659340659
141,1.7973137973137974
142,1.8051770451770448
143,1.8456166056166057
144,1.855726495726496
145,1.866959706959707
146,1.866959706959707
147,1.8714529914529916
148,1.86021978021978
149,1.84
150,1.8096703296703296
151,1.7815873015873016
152,1.7894505494505497
153,1.7916971916971918
154,1.7883272283272282
155,1.7782173382173383
156,1.7827106227106226
157,1.779340659340659
158,1.784957264957265
159,1.8152869352869352
160,1.7804639804639804
161,1.7726007326007327
162,1.895042735042735
163,2.3028083028083026
164,2.93074481074481
165,3.423882783882784
166,3.4946520146520146
167,3.216068376068376
168,2.6308180708180706
169,2.1073504273504278
170,1.831013431013431
171,1.6984615384615385
172,1.667008547008547
173,1.6422954822954825
174,1.6175824175824176
175,1.5906227106227109
176,1.573772893772894
177,1.5546764346764346
178,1.5591697191697191
179,1.547936507936508
180,1.5378266178266178
181,1.5434432234432234
182,1.546813186813187
183,1.5265934065934066
184,1.5322100122100122
185,1.5232234432234433
186,1.5546764346764346
187,1.5423199023199023
188,1.547936507936508
189,1.5423199023199023
190,1.549059829059829
191,1.568156288156288
192,1.5647863247863247
193,1.574896214896215
194,1.5647863247863247
195,1.5715262515262516
196,1.5647863247863247
197,1.5625396825396825
198,1.5557997557997558
199,1.574896214896215
200,1.5782661782661782
201,1.585006105006105
202,1.5951159951159952
203,1.6288156288156288
204,1.6288156288156288
205,1.659145299145299
206,1.6872283272283273
207,1.6962148962148962
208,1.7153113553113553
209,1.72991452991453
210,1.7209279609279609
211,1.7344078144078143
212,1.7242979242979244
213,1.7321611721611725
214,1.713064713064713
215,1.6905982905982906
216,1.678241758241758
217,1.6636385836385836
218,1.667008547008547
219,1.6422954822954825
220,1.631062271062271
221,1.6411721611721612
222,1.6344322344322344
223,1.6231990231990232
224,1.6243223443223442
225,1.6231990231990232
226,1.6220757020757022
227,1.6288156288156288
228,1.6501587301587302
229,1.6703785103785105
230,1.6647619047619049
231,1.683858363858364
232,1.6962148962148962
233,1.7018315018315018
234,1.6973382173382174
235,1.6984615384615385
236,1.6883516483516483
237,1.6793650793650794
238,1.686105006105006
239,1.6928449328449329
240,1.6950915750915752
241,1.693968253968254
242,1.702954822954823
243,1.7007081807081808
244,1.705201465201465
245,1.6995848595848595
246,1.7007081807081808
247,1.7254212454212454
248,1.7478876678876678
249,1.756874236874237
250,1.7546275946275949
251,1.7512576312576311
252,1.75013431013431
253,1.7669841269841269
254,1.74002442002442
255,1.738901098901099
256,1.7456410256410255
257,1.7546275946275949
258,1.756874236874237
259,1.768107448107448
260,1.756874236874237
261,1.7591208791208792
262,1.7613675213675213
263,1.7658608058608058
264,1.7523809523809524
265,1.74002442002442
266,1.7591208791208792
267,1.7624908424908423
268,1.7883272283272282
269,1.7860805860805862
270,1.8074236874236875
271,1.7984371184371184
272,1.823150183150183
273,1.8175335775335772
274,1.811916971916972
275,1.832136752136752
276,1.820903540903541
277,1.8164102564102564
278,1.822026862026862
279,1.8074236874236875
280,1.802930402930403
281,1.8074236874236875
282,1.8085470085470088
283,1.820903540903541
284,1.8063003663003665
285,1.8152869352869352
286,1.8085470085470088
287,1.7984371184371184
288,1.800683760683761
289,1.8096703296703296
290,1.8141636141636144
291,1.822026862026862
292,1.82989010989011
293,1.8164102564102564
294,1.8175335775335772
295,1.8074236874236875
296,1.802930402930403
297,1.7872039072039072
298,1.7883272283272282
299,1.7860805860805862
300,1.783833943833944
301,1.7928205128205128
302,1.8287667887667889
303,1.8512332112332115
304,1.881562881562881
305,1.891672771672772
306,1.8826862026862028
307,1.8714529914529916
308,1.8781929181929184
309,1.8736996336996337
310,1.847863247863248
311,1.827643467643468
312,1.7905738705738703
313,1.7692307692307692
314,1.731037851037851
315,1.7456410256410255
316,1.7287912087912087
317,1.722051282051282
318,1.7175579975579975
319,1.7478876678876678
320,1.796190476190476
321,1.7557509157509157
322,1.800683760683761
323,2.0107448107448107
324,2.527472527472528
325,3.1183394383394383
326,3.426129426129426
327,3.253137973137973
328,2.808302808302808
329,2.3174114774114773
330,1.96019536019536
331,1.7613675213675213
332,1.6602686202686203
333,1.6018559218559218
334,1.5726495726495726
335,1.5322100122100122
336,1.4962637362637363
337,1.474920634920635
338,1.4850305250305251
339,1.4782905982905985
340,1.467057387057387
341,1.4659340659340658
342,1.4794139194139193
343,1.4737973137973135
344,1.4794139194139193
345,1.4737973137973135
346,1.4771672771672772
347,1.4985103785103786
348,1.5131135531135531
349,1.5434432234432234
350,1.541196581196581
351,1.52996336996337
352,1.520976800976801
353,1.5322100122100122
354,1.5344566544566545
355,1.5322100122100122
356,1.5187301587301587
357,1.5041269841269842
358,1.511990231990232
359,1.51985347985348
360,1.5310866910866912
361,1.547936507936508
362,1.5636630036630037
363,1.5827594627594628
364,1.5951159951159952
365,1.6097191697191695
366,1.6378021978021975
367,1.6524053724053724
368,1.6917216117216116
369,1.713064713064713
370,1.7366544566544566
371,1.749010989010989
372,1.7411477411477412
373,1.7254212454212454
374,1.74002442002442
375,1.7254212454212454
376,1.713064713064713
377,1.6995848595848595
378,1.6816117216117217
379,1.677118437118437
380,1.6928449328449329
381,1.6883516483516483
382,1.6905982905982906
383,1.693968253968254
384,1.6883516483516483
385,1.6793650793650794
386,1.684981684981685
387,1.6917216117216116
388,1.6950915750915752
389,1.686105006105006
390,1.6793650793650794
391,1.7018315018315018
392,1.7153113553113553
393,1.7141880341880342
394,1.7096947496947497
395,1.7085714285714286
396,1.7074481074481074
397,1.710818070818071
398,1.702954822954823
399,1.684981684981685
400,1.7007081807081808
401,1.737777777777778
402,1.756874236874237
403,1.7523809523809524
404,1.7411477411477412
405,1.7557509157509157
406,1.7478876678876678
407,1.7445177045177045
408,1.7478876678876678
409,1.7344078144078143
410,1.7287912087912087
411,1.7209279609279609
412,1.7344078144078143
413,1.7344078144078143
414,1.737777777777778
415,1.7411477411477412
416,1.737777777777778
417,1.7366544566544566
418,1.7422710622710622
419,1.731037851037851
420,1.7265445665445665
421,1.737777777777778
422,1.7344078144078143
423,1.7321611721611725
424,1.7321611721611725
425,1.7366544566544566
426,1.7186813186813186
427,1.731037851037851
428,1.7433943833943837
429,1.722051282051282
430,1.7209279609279609
431,1.7096947496947497
432,1.713064713064713
433,1.705201465201465
434,1.7096947496947497
435,1.7141880341880342
436,1.7231746031746031
437,1.7411477411477412
438,1.749010989010989
439,1.7422710622710622
440,1.737777777777778
441,1.731037851037851
442,1.7141880341880342
443,1.704078144078144
444,1.6984615384615385
445,1.6928449328449329
446,1.6973382173382174
447,1.6984615384615385
448,1.6950915750915752
449,1.705201465201465
450,1.6984615384615385
451,1.6793650793650794
452,1.6804884004884004
453,1.6962148962148962
454,1.7074481074481074
455,1.7287912087912087
456,1.7321611721611725
457,1.704078144078144
458,1.7546275946275949
459,1.8063003663003665
460,1.8613431013431012
461,1.8793162393162397
462,1.8781929181929184
463,1.875946275946276
464,1.8781929181929184
465,1.874822954822955
466,1.8377533577533576
467,1.8074236874236875
468,1.7916971916971918
469,1.7883272283272282
470,1.784957264957265
471,1.7726007326007327
472,1.7669841269841269
473,1.775970695970696
474,1.777094017094017
475,1.7748473748473748
476,1.7726007326007327
477,1.7265445665445665
478,1.7007081807081808
479,1.8186568986568987
480,2.2612454212454214
481,2.9026617826617827
482,3.411526251526252
483,3.4407326007326007
484,3.1565323565323564
485,2.64991452991453
486,2.15003663003663
487,1.8456166056166057
488,1.7085714285714286
489,1.656898656898657
490,1.6434188034188033
491,1.6333089133089134
492,1.615335775335775
493,1.6231990231990232
494,1.6164590964590964
495,1.61982905982906
496,1.631062271062271
497,1.6378021978021975
498,1.638925518925519
499,1.615335775335775
500,1.5962393162393165
501,1.5872527472527471
502,1.565909645909646
503,1.567032967032967
504,1.5535531135531135
505,1.5423199023199023
506,1.5569230769230769
507,1.547936507936508
508,1.5591697191697191
509,1.5692796092796093
510,1.5805128205128205
511,1.5883760683760684
512,1.5816361416361415
513,1.5692796092796093
514,1.5602930402930404
515,1.5917460317460317
516,1.615335775335775
517,1.6333089133089134
518,1.64004884004884
519,1.656898656898657
520,1.6703785103785105
521,1.702954822954823
522,1.7186813186813186
523,1.7209279609279609
524,1.738901098901099
525,1.7433943833943837
526,1.7557509157509157
527,1.7703540903540904
528,1.7872039072039072
529,1.7905738705738703
530,1.7726007326007327
531,1.7647374847374848
532,1.7546275946275949
533,1.7478876678876678
534,1.7254212454212454
535,1.722051282051282
536,1.7074481074481074
537,1.693968253968254
538,1.675995115995116
539,1.667008547008547
540,1.675995115995116
541,1.6804884004884004
542,1.678241758241758
543,1.677118437118437
544,1.6816117216117217
545,1.6950915750915752
546,1.6984615384615385
547,1.7018315018315018
548,1.7085714285714286
549,1.6973382173382174
550,1.6962148962148962
551,1.6950915750915752
552,1.702954822954823
553,1.702954822954823
554,1.7007081807081808
555,1.6950915750915752
556,1.6917216117216116
557,1.6962148962148962
558,1.7175579975579975
559,1.7186813186813186
560,1.7209279609279609
561,1.7231746031746031
562,1.731037851037851
563,1.7198046398046398
564,1.7332844932844933
565,1.7366544566544566
566,1.7445177045177045
567,1.7467643467643468
568,1.7265445665445665
569,1.713064713064713
570,1.7287912087912087
571,1.757997557997558
572,1.7546275946275949
573,1.7815873015873016
574,1.7872039072039072
575,1.7894505494505497
576,1.7827106227106226
577,1.7714774114774114
578,1.779340659340659
579,1.7894505494505497
580,1.7815873015873016
581,1.7703540903540904
582,1.7748473748473748
583,1.7658608058608058
584,1.7916971916971918
585,1.795067155067155
586,1.7995604395604397
587,1.7973137973137974
588,1.7939438339438338
589,1.7748473748473748
590,1.7883272283272282
591,1.784957264957265
592,1.7815873015873016
593,1.7883272283272282
594,1.7860805860805862
595,1.796190476190476
596,1.7939438339438338
597,1.784957264957265
598,1.779340659340659
599,1.7939438339438338
600,1.7737240537240535
601,1.7624908424908423
602,1.7669841269841269
603,1.7692307692307692
604,1.768107448107448
605,1.7669841269841269
606,1.795067155067155
607,1.8467399267399267
608,1.891672771672772
609,1.93997557997558
610,1.9343589743589744
611,1.9366056166056167
612,1.9096459096459095
613,1.8927960927960927
614,1.8703296703296703
615,1.8546031746031744
616,1.8287667887667889
617,1.8107936507936508
618,1.7973137973137974
619,1.7782173382173383
620,1.779340659340659
621,1.7703540903540904
622,1.7557509157509157
623,1.779340659340659
624,1.795067155067155
625,1.7523809523809524
626,1.737777777777778
627,1.8826862026862028
628,2.2893284493284494
629,2.922881562881563
630,3.437362637362637
631,3.495775335775336
632,3.1778754578754578
633,2.6308180708180706
634,2.1264468864468866
635,1.8287667887667889
636,1.6816117216117217
637,1.620952380952381
638,1.6097191697191695
639,1.5872527472527471
640,1.5771428571428572
641,1.5636630036630037
642,1.541196581196581
643,1.54007326007326
644,1.5131135531135531
645,1.5097435897435898
646,1.5108669108669108
647,1.5164835164835164
648,1.5097435897435898
649,1.5052503052503052
650,1.5153601953601954
651,1.538949938949939
652,1.5591697191697191
653,1.5647863247863247
654,1.5602930402930404
655,1.5434432234432234
656,1.558046398046398
657,1.5636630036630037
658,1.5883760683760684
659,1.574896214896215
660,1.576019536019536
661,1.573772893772894
662,1.573772893772894
663,1.574896214896215
664,1.5962393162393165
665,1.604102564102564
666,1.61982905982906
667,1.6231990231990232
668,1.6333089133089134
669,1.658021978021978
670,1.6748717948717948
671,1.6950915750915752
672,1.7186813186813186
673,1.7265445665445665
674,1.7591208791208792
675,1.756874236874237
676,1.7827106227106226
677,1.784957264957265
678,1.8051770451770448
679,1.802930402930403
680,1.7905738705738703
681,1.7535042735042734
682,1.7164346764346765
683,1.7141880341880342
684,1.7344078144078143
685,1.7467643467643468
686,1.75013431013431
687,1.7535042735042734
688,1.7422710622710622
689,1.7231746031746031
690,1.6883516483516483
691,1.638925518925519
692,1.592869352869353
693,1.604102564102564
694,1.6299389499389498
695,1.6625152625152626
696,1.684981684981685
697,1.6872283272283273
698,1.6827350427350427
699,1.6872283272283273
700,1.6905982905982906
701,1.6973382173382174
702,1.686105006105006
703,1.704078144078144
704,1.6995848595848595
705,1.768107448107448
706,1.8175335775335772
707,1.9152625152625156
708,2.279218559218559
709,2.858852258852259
710,3.450842490842491
711,3.495775335775336
712,3.168888888888889
713,2.5533089133089133
714,2.0927472527472526
715,1.8085470085470088
716,1.6647619047619049
717,1.5906227106227109
718,1.5625396825396825
719,1.541196581196581
720,1.5333333333333334
721,1.5131135531135531
722,1.5153601953601954
723,1.5041269841269842
724,1.4985103785103786
725,1.514236874236874
726,1.5243467643467643
727,1.520976800976801
728,1.5254700854700856
729,1.495140415140415
730,1.5131135531135531
731,1.5344566544566545
732,1.549059829059829
733,1.5445665445665446
734,1.568156288156288
735,1.568156288156288
736,1.5715262515262516
737,1.5546764346764346
738,1.565909645909646
739,1.5614163614163614
740,1.5557997557997558
741,1.5423199023199023
742,1.5569230769230769
743,1.5793894993894997
744,1.5883760683760684
745,1.615335775335775
746,1.6175824175824176
747,1.61982905982906
748,1.6142124542124543
749,1.6344322344322344
750,1.6434188034188033
751,1.6726251526251523
752,1.6793650793650794
753,1.7096947496947497
754,1.72991452991453
755,1.7265445665445665
756,1.7231746031746031
757,1.74002442002442
758,1.731037851037851
759,1.7265445665445665
760,1.710818070818071
761,1.6984615384615385
762,1.6962148962148962
763,1.6928449328449329
764,1.683858363858364
765,1.6715018315018315
766,1.6883516483516483
767,1.6905982905982906
768,1.6928449328449329
769,1.6894749694749696
770,1.693968253968254
771,1.683858363858364
772,1.6715018315018315
773,1.6726251526251523
774,1.6883516483516483
775,1.713064713064713
776,1.731037851037851
777,1.7355311355311356
778,1.7175579975579975
779,1.7175579975579975
780,1.7074481074481074
781,1.7063247863247863
782,1.704078144078144
783,1.6950915750915752
784,1.7242979242979244
785,1.7624908424908423
786,1.7669841269841269
787,1.7703540903540904
788,1.775970695970696
789,1.7782173382173383
790,1.7737240537240535
791,1.7557509157509157
792,1.737777777777778
793,1.7422710622710622
794,1.7647374847374848
795,1.7726007326007327
796,1.7748473748473748
797,1.7658608058608058
798,1.7613675213675213
799,1.7726007326007327
800,1.7737240537240535
801,1.7872039072039072
802,1.7782173382173383
803,1.7591208791208792
804,1.7714774114774114
805,1.7602442002442005
806,1.75013431013431
807,1.756874236874237
808,1.7546275946275949
809,1.749010989010989
810,1.7411477411477412
811,1.756874236874237
812,1.7344078144078143
813,1.7422710622710622
814,1.7276678876678877
815,1.7332844932844933
816,1.7411477411477412
817,1.7422710622710622
818,1.7445177045177045
819,1.7344078144078143
820,1.7535042735042734
821,1.7355311355311356
822,1.7456410256410255
823,1.7422710622710622
824,1.75013431013431
825,1.75013431013431
826,1.757997557997558
827,1.7456410256410255
828,1.7355311355311356
829,1.7512576312576311
830,1.7512576312576311
831,1.756874236874237
832,1.7512576312576311
833,1.749010989010989
834,1.7478876678876678
835,1.7433943833943837
836,1.7714774114774114
837,1.7726007326007327
838,1.768107448107448
839,1.7613675213675213
840,1.7512576312576311
841,1.775970695970696
842,1.7928205128205128
843,1.7782173382173383
844,1.7804639804639804
845,1.7995604395604397
846,1.7872039072039072
847,1.7905738705738703
848,1.7883272283272282
849,1.7916971916971918
850,1.802930402930403
851,1.7995604395604397
852,1.7883272283272282
853,1.783833943833944
854,1.7860805860805862
855,1.8107936507936508
856,1.81978021978022
857,1.8018070818070815
858,1.7726007326007327
859,1.7669841269841269
860,1.7748473748473748
861,1.7905738705738703
862,1.8063003663003665
863,1.8287667887667889
864,1.85010989010989
865,1.875946275946276
866,1.9197557997558
867,1.9366056166056167
868,1.9433455433455435
869,1.9388522588522588
870,1.9467155067155064
871,1.9186324786324789
872,1.9287423687423688
873,1.9051526251526247
874,1.8781929181929184
875,1.8355067155067155
876,1.8265201465201464
877,1.8175335775335772
878,1.811916971916972
879,1.8164102564102564
880,1.8085470085470088
881,1.8085470085470088
882,1.7984371184371184
883,1.7647374847374848
884,1.7164346764346765
885,1.8096703296703296
886,2.1365567765567763
887,2.735286935286936
888,3.2756043956043954
889,3.4205128205128204
890,3.120586080586081
891,2.6712576312576317
892,2.1623931623931623
893,1.841123321123321
894,1.6692551892551892
895,1.5782661782661782
896,1.51985347985348
897,1.494017094017094
898,1.4895238095238097
899,1.4962637362637363
900,1.4895238095238097
901,1.5007570207570209
902,1.5063736263736265
903,1.4827838827838828
904,1.4704273504273504
905,1.467057387057387
906,1.4535775335775336
907,1.4614407814407817
908,1.4580708180708182
909,1.4895238095238097
910,1.4861538461538462
911,1.474920634920635
912,1.4827838827838828
913,1.468180708180708
914,1.4693040293040294
915,1.4603174603174602
916,1.4794139194139193
917,1.472673992673993
918,1.472673992673993
919,1.4782905982905985
920,1.501880341880342
921,1.4850305250305251
922,1.4917704517704518
923,1.5063736263736265
924,1.5131135531135531
925,1.5254700854700856
926,1.52996336996337
927,1.5569230769230769
928,1.5816361416361415
929,1.593992673992674
930,1.6007326007326008
931,1.5827594627594628
932,1.5501831501831502
933,1.5602930402930404
934,1.573772893772894
935,1.6187057387057386
936,1.6535286935286937
937,1.675995115995116
938,1.7018315018315018
939,1.6984615384615385
940,1.711941391941392
941,1.722051282051282
942,1.7366544566544566
943,1.710818070818071
944,1.6737484737484738
945,1.678241758241758
946,1.6950915750915752
947,1.7209279609279609
948,1.7265445665445665
949,1.7141880341880342
950,1.6928449328449329
951,1.6816117216117217
952,1.6905982905982906
953,1.702954822954823
954,1.7153113553113553
955,1.7096947496947497
956,1.713064713064713
957,1.6984615384615385
958,1.6950915750915752
959,1.693968253968254
960,1.665885225885226
961,1.683858363858364
962,1.6973382173382174
963,1.722051282051282
964,1.7287912087912087
965,1.7186813186813186
966,1.7242979242979244
967,1.7321611721611725
968,1.757997557997558
969,1.7624908424908423
970,1.7636141636141636
971,1.7535042735042734
972,1.7422710622710622
973,1.7153113553113553
974,1.6681318681318682
975,1.6187057387057386
976,1.6108424908424908
977,1.613089133089133
978,1.636678876678877
979,1.6804884004884004
980,1.6793650793650794
981,1.6917216117216116
982,1.6995848595848595
983,1.7254212454212454
984,1.713064713064713
985,1.7153113553113553
986,1.731037851037851
987,1.7366544566544566
988,1.7209279609279609
989,1.7321611721611725
990,1.9309890109890109
991,2.44996336996337
992,3.0745299145299145
993,3.398046398046398
994,3.2834676434676435
995,2.907155067155067
996,2.425250305250305
997,2.034334554334554
998,1.8074236874236875
999,1.722051282051282
1000,1.665885225885226
1001,1.6299389499389498
1002,1.6097191697191695
1003,1.6142124542124543
1004,1.5984859584859583
1005,1.6074725274725274
1006,1.5996092796092796
1007,1.592869352869353
1008,1.5883760683760684
1009,1.615335775335775
1010,1.5951159951159952
1011,1.5962393162393165
1012,1.613089133089133
1013,1.6636385836385836
1014,1.6512820512820512
1015,1.632185592185592
1016,1.638925518925519
1017,1.6804884004884004
1018,1.704078144078144
1019,1.713064713064713
1020,1.6917216117216116
1021,1.683858363858364
1022,1.6647619047619049
1023,1.6467887667887668
1024,1.6456654456654456
1025,1.6512820512820512
1026,1.6681318681318682
1027,1.677118437118437
1028,1.7153113553113553
1029,1.74002442002442
1030,1.7714774114774114
1031,1.783833943833944
1032,1.823150183150183
1033,1.857973137973138
1034,1.868083028083028
1035,1.895042735042735
1036,1.8961660561660565
1037,1.920879120879121
1038,1.8984126984126983
1039,1.875946275946276
1040,1.874822954822955
1041,1.8523565323565323
1042,1.822026862026862
1043,1.820903540903541
1044,1.7815873015873016
1045,1.7658608058608058
1046,1.7456410256410255
1047,1.7512576312576311
1048,1.7523809523809524
1049,1.7433943833943837
1050,1.7186813186813186
1051,1.7456410256410255
1052,1.7591208791208792
1053,1.7804639804639804
1054,1.784957264957265
1055,1.795067155067155
1056,1.7703540903540904
1057,1.7422710622710622
1058,1.7411477411477412
1059,1.7456410256410255
1060,1.757997557997558
1061,1.7602442002442005
1062,1.7591208791208792
1063,1.7737240537240535
1064,1.779340659340659
1065,1.784957264957265
1066,1.7748473748473748
1067,1.7445177045177045
1068,1.74002442002442
1069,1.7535042735042734
1070,1.7433943833943837
1071,1.737777777777778
1072,1.7366544566544566
1073,1.7096947496947497
1074,1.6883516483516483
1075,1.7018315018315018
1076,1.74002442002442
1077,1.7456410256410255
1078,1.757997557997558
1079,1.7624908424908423
1080,1.7748473748473748
1081,1.7613675213675213
1082,1.7557509157509157
1083,1.7478876678876678
1084,1.7411477411477412
1085,1.7512576312576311
1086,1.7557509157509157
1087,1.7624908424908423
1088,1.749010989010989
1089,1.7467643467643468
1090,1.7242979242979244
1091,1.737777777777778
1092,1.7332844932844933
1093,1.7209279609279609
1094,1.7153113553113553
1095,1.737777777777778
1096,1.757997557997558
1097,1.775970695970696
1098,1.7546275946275949
1099,1.749010989010989
1100,1.757997557997558
1101,1.7456410256410255
1102,1.7624908424908423
1103,1.775970695970696
1104,1.7827106227106226
1105,1.7860805860805862
1106,1.7591208791208792
1107,1.7153113553113553
1108,1.7209279609279609
1109,1.757997557997558
1110,1.7995604395604397
1111,1.7995604395604397
1112,1.813040293040293
1113,1.8063003663003665
1114,1.795067155067155
1115,1.7737240537240535
1116,1.784957264957265
1117,1.7928205128205128
1118,1.7883272283272282
1119,1.7782173382173383
1120,1.7636141636141636
1121,1.775970695970696
1122,1.7894505494505497
1123,1.7883272283272282
1124,1.804053724053724
1125,1.7939438339438338
1126,1.795067155067155
1127,1.7894505494505497
1128,1.7984371184371184
1129,1.796190476190476
1130,1.800683760683761
1131,1.7737240537240535
1132,1.775970695970696
1133,1.7939438339438338
1134,1.795067155067155
1135,1.831013431013431
1136,1.8444932844932844
1137,1.82989010989011
1138,1.804053724053724
1139,1.7883272283272282
1140,1.7815873015873016
1141,1.8018070818070815
1142,1.820903540903541
1143,1.8332600732600728
1144,1.827643467643468
1145,1.8141636141636144
1146,1.7916971916971918
1147,1.775970695970696
1148,1.7827106227106226
1149,1.775970695970696
1150,1.768107448107448
1151,1.795067155067155
1152,1.8265201465201464
1153,1.8826862026862028
1154,1.9062759462759464
1155,1.932112332112332
1156,1.9455921855921856
1157,1.913015873015873
1158,1.902905982905983
1159,1.877069597069597
1160,1.842246642246642
1161,1.831013431013431
1162,1.802930402930403
1163,1.7916971916971918
1164,1.7703540903540904
1165,1.75013431013431
1166,1.7344078144078143
1167,1.704078144078144
1168,1.6973382173382174
1169,1.7085714285714286
1170,1.6557753357753358
1171,1.6816117216117217
1172,1.8444932844932844
1173,2.3297680097680096
1174,2.931868131868132
1175,3.330647130647131
1176,3.267741147741148
1177,2.8903052503052504
1178,2.396043956043956
1179,1.9613186813186811
1180,1.722051282051282
1181,1.6108424908424908
1182,1.558046398046398
1183,1.5288400488400489
1184,1.4827838827838828
1185,1.4794139194139193
1186,1.4367277167277168
1187,1.4266178266178269
1188,1.412014652014652
1189,1.4524542124542124
1190,1.4625641025641023
1191,1.4547008547008546
1192,1.451330891330891
1193,1.468180708180708
1194,1.4468376068376068
1195,1.4412210012210012
1196,1.3861782661782662
1197,1.403028083028083
1198,1.4322344322344325
1199,1.4625641025641023
1200,1.4524542124542124
1201,1.4423443223443224
1202,1.483907203907204
1203,1.4973870573870574
1204,1.4704273504273504
1205,1.4704273504273504
1206,1.4535775335775336
1207,1.4794139194139193
1208,1.4973870573870574
1209,1.5265934065934066
1210,1.5187301587301587
1211,1.5074969474969475
1212,1.4884004884004884
1213,1.5074969474969475
1214,1.5153601953601954
1215,1.538949938949939
1216,1.558046398046398
1217,1.5906227106227109
1218,1.6074725274725274
1219,1.6299389499389498
1220,1.6434188034188033
1221,1.6726251526251523
1222,1.6793650793650794
1223,1.6962148962148962
1224,1.704078144078144
1225,1.7265445665445665
1226,1.7321611721611725
1227,1.7456410256410255
1228,1.7445177045177045
1229,1.749010989010989
1230,1.7467643467643468
1231,1.7445177045177045
1232,1.75013431013431
1233,1.7602442002442005
1234,1.7939438339438338
1235,1.7860805860805862
1236,1.7602442002442005
1237,1.7265445665445665
1238,1.6872283272283273
1239,1.6804884004884004
1240,1.6883516483516483
1241,1.7085714285714286
1242,1.7523809523809524
1243,1.7905738705738703
1244,1.777094017094017
1245,1.7860805860805862
1246,1.7647374847374848
1247,1.783833943833944
1248,1.7860805860805862
1249,1.8063003663003665
1250,1.8096703296703296
1251,1.802930402930403
1252,1.811916971916972
1253,1.8186568986568987
1254,1.8253968253968251
1255,1.7905738705738703
1256,1.783833943833944
1257,1.847863247863248
1258,2.0377045177045177
1259,2.123076923076923
1260,1.9287423687423688
1261,1.6692551892551892
1262,1.44009768009768
1263,1.283956043956044
1264,1.1626373626373627
1265,1.0615384615384615
1266,1.0132356532356532
1267,0.9536996336996336
1268,0.9885225885225886
1269,1.1626373626373627
1270,1.3985347985347985
1271,1.7096947496947497
1272,1.8714529914529916
1273,1.9186324786324789
1274,1.9354822954822957
1275,1.964688644688645
1276,1.968058608058608
1277,1.984908424908425
1278,1.986031746031746
1279,2.01973137973138
1280,2.033211233211233
1281,2.051184371184372
1282,2.051184371184372
1283,2.032087912087912
1284,2.0365811965811966
1285,2.046691086691087
1286,2.094993894993895
1287,2.1185836385836385
1288,2.1421733821733824
1289,2.151159951159951
1290,2.185982905982906
1291,2.2073260073260075
1292,2.227545787545788
1293,2.2623687423687424
1294,2.300561660561661
1295,2.330891330891331
1296,2.3713308913308917
1297,2.4376068376068374
1298,2.479169719169719
1299,2.505006105006105
1300,2.5285958485958484
1301,2.5364590964590965
1302,2.516239316239316
1303,2.4589499389499387
1304,2.405030525030525
1305,2.334261294261294
1306,2.2488888888888887
1307,2.1578998778998777
1308,2.07028083028083
1309,1.996141636141636
1310,1.9433455433455435
1311,1.8804395604395605
1312,1.8164102564102564
1313,1.7647374847374848
1314,1.705201465201465
1315,1.665885225885226
1316,1.6512820512820512
1317,1.6467887667887668
1318,1.631062271062271
1319,1.6220757020757022
1320,1.6164590964590964
1321,1.6333089133089134
1322,1.6175824175824176
1323,1.6187057387057386
1324,1.6288156288156288
1325,1.615335775335775
1326,1.6074725274725274
1327,1.6220757020757022
1328,1.6265689865689863
1329,1.6220757020757022
1330,1.6299389499389498
1331,1.6333089133089134
1332,1.6422954822954825
1333,1.6535286935286937
1334,1.6411721611721612
1335,1.6333089133089134
1336,1.6512820512820512
1337,1.656898656898657
1338,1.6715018315018315
1339,1.686105006105006
1340,1.711941391941392
1341,1.7287912087912087
1342,1.6973382173382174
1343,1.6793650793650794
1344,1.6636385836385836
1345,1.6647619047619049
1346,1.678241758241758
1347,1.677118437118437
1348,1.665885225885226
1349,1.683858363858364
1350,1.7141880341880342
1351,1.74002442002442
1352,1.731037851037851
1353,1.7186813186813186
1354,1.7085714285714286
1355,1.705201465201465
1356,1.7242979242979244
1357,1.72991452991453
1358,1.7287912087912087
1359,1.7141880341880342
1360,1.704078144078144
1361,1.7096947496947497
1362,1.72991452991453
1363,1.7321611721611725
1364,1.7096947496947497
1365,1.7164346764346765
1366,1.7063247863247863
1367,1.713064713064713
1368,1.7007081807081808
1369,1.678241758241758
1370,1.675995115995116
1371,1.6726251526251523
1372,1.6872283272283273
1373,1.6973382173382174
1374,1.7063247863247863
1375,1.6984615384615385
1376,1.6905982905982906
1377,1.704078144078144
1378,1.7074481074481074
1379,1.7096947496947497
1380,1.7096947496947497
1381,1.7063247863247863
1382,1.677118437118437
1383,1.6681318681318682
1384,1.6557753357753358
1385,1.6737484737484738
1386,1.705201465201465
1387,1.7007081807081808
1388,1.6962148962148962
1389,1.702954822954823
1390,1.6928449328449329
1391,1.684981684981685
1392,1.6816117216117217
1393,1.6883516483516483
1394,1.6928449328449329
1395,1.6962148962148962
1396,1.7063247863247863
1397,1.6973382173382174
1398,1.6692551892551892
1399,1.6737484737484738
1400,1.6827350427350427
1401,1.6973382173382174
1402,1.6917216117216116
1403,1.6950915750915752
1404,1.7074481074481074
1405,1.7231746031746031
1406,1.7355311355311356
1407,1.7433943833943837
1408,1.7669841269841269
1409,1.796190476190476
1410,1.8063003663003665
1411,1.8253968253968251
1412,1.832136752136752
1413,1.827643467643468
1414,1.8265201465201464
1415,1.8085470085470088
1416,1.800683760683761
1417,1.7860805860805862
1418,1.7647374847374848
1419,1.7422710622710622
1420,1.738901098901099
1421,1.75013431013431
1422,1.7523809523809524
1423,1.7546275946275949
1424,1.7714774114774114
1425,1.795067155067155
1426,1.7636141636141636
1427,1.7478876678876678
1428,1.8635897435897435
1429,2.2623687423687424
1430,2.835262515262515
1431,3.362100122100122
1432,3.495775335775336
1433,3.2756043956043954
1434,2.7442735042735045
1435,2.1904761904761907
1436,1.8433699633699636
1437,1.686105006105006
1438,1.6007326007326008
1439,1.5704029304029303
1440,1.541196581196581
1441,1.5187301587301587
1442,1.5232234432234433
1443,1.5254700854700856
1444,1.541196581196581
1445,1.5423199023199023
1446,1.5636630036630037
1447,1.558046398046398
1448,1.5288400488400489
1449,1.511990231990232
1450,1.4827838827838828
1451,1.4782905982905985
1452,1.4962637362637363
1453,1.5041269841269842
1454,1.5310866910866912
1455,1.5265934065934066
1456,1.5310866910866912
1457,1.5524297924297925
1458,1.558046398046398
1459,1.5704029304029303
1460,1.5569230769230769
1461,1.549059829059829
1462,1.5445665445665446
1463,1.5434432234432234
1464,1.5456898656898657
1465,1.5456898656898657
1466,1.5557997557997558
1467,1.541196581196581
1468,1.538949938949939
1469,1.547936507936508
1470,1.5434432234432234
1471,1.5557997557997558
1472,1.54007326007326
1473,1.546813186813187
1474,1.5423199023199023
1475,1.5524297924297925
1476,1.5614163614163614
1477,1.5445665445665446
1478,1.5513064713064713
1479,1.5647863247863247
1480,1.5973626373626373
1481,1.6636385836385836
1482,1.7355311355311356
1483,1.757997557997558
1484,1.7512576312576311
1485,1.7422710622710622
1486,1.7321611721611725
1487,1.7209279609279609
1488,1.711941391941392
1489,1.7141880341880342
1490,1.7198046398046398
1491,1.710818070818071
1492,1.7209279609279609
1493,1.6973382173382174
1494,1.711941391941392
1495,1.705201465201465
1496,1.7265445665445665
1497,1.7276678876678877
1498,1.7433943833943837
1499,1.7512576312576311
1500,1.74002442002442
1501,1.7422710622710622
1502,1.731037851037851
1503,1.7265445665445665
1504,1.7366544566544566
1505,1.7422710622710622
1506,1.7557509157509157
1507,1.7916971916971918
1508,1.7995604395604397
1509,1.8141636141636144
1510,1.8018070818070815
1511,1.784957264957265
1512,1.7995604395604397
1513,1.7860805860805862
1514,1.8096703296703296
1515,1.802930402930403
1516,1.7827106227106226
1517,1.768107448107448
1518,1.711941391941392
1519,1.704078144078144
1520,1.7085714285714286
1521,1.7433943833943837
1522,1.775970695970696
1523,1.796190476190476
1524,1.7815873015873016
1525,1.7703540903540904
1526,1.7726007326007327
1527,1.7692307692307692
1528,1.783833943833944
1529,1.7782173382173383
1530,1.8074236874236875
1531,1.7928205128205128
1532,1.7647374847374848
1533,1.8366300366300363
1534,2.201709401709402
1535,2.788083028083028
1536,3.2935775335775337
1537,3.435115995115995
1538,3.213821733821734
1539,2.697094017094017
1540,2.194969474969475
1541,1.874822954822955
1542,1.7254212454212454
1543,1.6681318681318682
1544,1.6524053724053724
1545,1.6276923076923078
1546,1.6007326007326008
1547,1.5726495726495726
1548,1.5614163614163614
1549,1.541196581196581
1550,1.5614163614163614
1551,1.5546764346764346
1552,1.5636630036630037
1553,1.5726495726495726
1554,1.592869352869353
1555,1.604102564102564
1556,1.5894993894993894
1557,1.604102564102564
1558,1.5838827838827838
1559,1.586129426129426
1560,1.5984859584859583
1561,1.5962393162393165
1562,1.5951159951159952
1563,1.586129426129426
1564,1.592869352869353
1565,1.5872527472527471
1566,1.5962393162393165
1567,1.5962393162393165
1568,1.5894993894993894
1569,1.6108424908424908
1570,1.6052258852258852
1571,1.6164590964590964
1572,1.647912087912088
1573,1.667008547008547
1574,1.659145299145299
1575,1.6434188034188033
1576,1.677118437118437
1577,1.6816117216117217
1578,1.678241758241758
1579,1.6793650793650794
1580,1.683858363858364
1581,1.7085714285714286
1582,1.7242979242979244
1583,1.7355311355311356
1584,1.72991452991453
1585,1.7186813186813186
1586,1.7141880341880342
1587,1.704078144078144
1588,1.6928449328449329
1589,1.686105006105006
1590,1.6816117216117217
1591,1.684981684981685
1592,1.6962148962148962
1593,1.704078144078144
1594,1.693968253968254
1595,1.6804884004884004
1596,1.6793650793650794
1597,1.6962148962148962
1598,1.6950915750915752
1599,1.7074481074481074
1600,1.6950915750915752
1601,1.6917216117216116
1602,1.684981684981685
1603,1.6950915750915752
1604,1.6883516483516483
1605,1.6950915750915752
1606,1.6984615384615385
1607,1.7018315018315018
1608,1.7276678876678877
1609,1.7422710622710622
1610,1.7456410256410255
1611,1.7063247863247863
1612,1.7164346764346765
1613,1.7321611721611725
1614,1.7153113553113553
1615,1.7186813186813186
1616,1.7231746031746031
1617,1.7411477411477412
1618,1.7512576312576311
1619,1.768107448107448
1620,1.7557509157509157
1621,1.7624908424908423
1622,1.7523809523809524
1623,1.7242979242979244
1624,1.7276678876678877
1625,1.7512576312576311
1626,1.7692307692307692
1627,1.779340659340659
1628,1.7860805860805862
1629,1.7894505494505497
1630,1.7905738705738703
1631,1.775970695970696
1632,1.7692307692307692
1633,1.768107448107448
1634,1.7523809523809524
1635,1.737777777777778
1636,1.74002442002442
1637,1.7276678876678877
1638,1.7231746031746031
1639,1.7355311355311356
1640,1.722051282051282
1641,1.7265445665445665
1642,1.738901098901099
1643,1.7254212454212454
1644,1.7175579975579975
1645,1.7242979242979244
1646,1.7231746031746031
1647,1.75013431013431
1648,1.7355311355311356
1649,1.7344078144078143
1650,1.7231746031746031
1651,1.7242979242979244
1652,1.731037851037851
1653,1.7344078144078143
1654,1.737777777777778
1655,1.7276678876678877
1656,1.7287912087912087
1657,1.74002442002442
1658,1.7535042735042734
1659,1.7523809523809524
1660,1.7546275946275949
1661,1.7332844932844933
1662,1.7096947496947497
1663,1.731037851037851
1664,1.7411477411477412
1665,1.7478876678876678
1666,1.7804639804639804
1667,1.7669841269841269
1668,1.749010989010989
1669,1.7703540903540904
1670,1.777094017094017
1671,1.7726007326007327
1672,1.7647374847374848
1673,1.7647374847374848
1674,1.7636141636141636
1675,1.75013431013431
1676,1.7557509157509157
1677,1.7804639804639804
1678,1.7703540903540904
1679,1.7804639804639804
1680,1.7703540903540904
1681,1.7658608058608058
1682,1.7658608058608058
1683,1.7658608058608058
1684,1.7591208791208792
1685,1.7602442002442005
1686,1.7591208791208792
1687,1.7535042735042734
1688,1.7433943833943837
1689,1.738901098901099
1690,1.757997557997558
1691,1.7422710622710622
1692,1.7467643467643468
1693,1.7883272283272282
1694,1.84
1695,1.869206349206349
1696,1.9017826617826616
1697,1.893919413919414
1698,1.8871794871794871
1699,1.857973137973138
1700,1.8590964590964592
1701,1.82989010989011
1702,1.802930402930403
1703,1.7872039072039072
1704,1.7782173382173383
1705,1.775970695970696
1706,1.7636141636141636
1707,1.7613675213675213
1708,1.7658608058608058
1709,1.7658608058608058
1710,1.7714774114774114
1711,1.7276678876678877
1712,1.7276678876678877
1713,1.874822954822955
1714,2.2983150183150185
1715,2.898168498168498
1716,3.3396336996336995
1717,3.295824175824176
1718,2.9588278388278386
1719,2.48029304029304
1720,2.03995115995116
1721,1.7872039072039072
1722,1.6681318681318682
1723,1.592869352869353
1724,1.5726495726495726
1725,1.5344566544566545
1726,1.5176068376068377
1727,1.5063736263736265
1728,1.4928937728937728
1729,1.4884004884004884
1730,1.4648107448107448
1731,1.4962637362637363
1732,1.5086202686202683
1733,1.5265934065934066
1734,1.5378266178266178
1735,1.5277167277167276
1736,1.514236874236874
1737,1.5232234432234433
1738,1.5153601953601954
1739,1.511990231990232
1740,1.511990231990232
1741,1.514236874236874
1742,1.5131135531135531
1743,1.5164835164835164
1744,1.5367032967032968
1745,1.546813186813187
1746,1.522100122100122
1747,1.4794139194139193
1748,1.4985103785103786
1749,1.5265934065934066
1750,1.5546764346764346
1751,1.558046398046398
1752,1.5591697191697191
1753,1.5602930402930404
1754,1.5546764346764346
1755,1.5805128205128205
1756,1.5827594627594628
1757,1.5951159951159952
1758,1.5996092796092796
1759,1.6052258852258852
1760,1.6231990231990232
1761,1.6422954822954825
1762,1.6636385836385836
1763,1.659145299145299
1764,1.683858363858364
1765,1.6748717948717948
1766,1.665885225885226
1767,1.6827350427350427
1768,1.678241758241758
1769,1.665885225885226
1770,1.6546520146520147
1771,1.6804884004884004
1772,1.686105006105006
1773,1.7085714285714286
1774,1.704078144078144
1775,1.711941391941392
1776,1.6995848595848595
1777,1.7198046398046398
1778,1.713064713064713
1779,1.722051282051282
1780,1.722051282051282
1781,1.7332844932844933
1782,1.7153113553113553
1783,1.7074481074481074
1784,1.6816117216117217
1785,1.6928449328449329
1786,1.713064713064713
1787,1.7153113553113553
1788,1.7231746031746031
1789,1.7254212454212454
1790,1.7287912087912087
1791,1.7456410256410255
1792,1.7726007326007327
1793,1.7827106227106226
1794,1.7860805860805862
1795,1.7894505494505497
1796,1.7591208791208792
1797,1.6917216117216116
1798,1.6726251526251523
1799,1.6737484737484738
1800,1.6827350427350427
1801,1.7321611721611725
1802,1.7602442002442005
1803,1.7692307692307692
1804,1.7636141636141636
1805,1.7647374847374848
1806,1.7557509157509157
1807,1.7546275946275949
1808,1.7557509157509157
1809,1.7692307692307692
1810,1.7782173382173383
1811,1.75013431013431
1812,1.7422710622710622
1813,1.952332112332112
1814,2.476923076923077
1815,3.03970695970696
1816,3.3104273504273505
1817,3.116092796092796
1818,2.7218070818070816
1819,2.306178266178266
1820,1.9455921855921856
1821,1.7737240537240535
1822,1.6995848595848595
1823,1.6692551892551892
1824,1.6434188034188033
1825,1.6467887667887668
1826,1.61982905982906
1827,1.5962393162393165
1828,1.585006105006105
1829,1.5973626373626373
1830,1.6175824175824176
1831,1.6007326007326008
1832,1.5906227106227109
1833,1.5883760683760684
1834,1.576019536019536
1835,1.5771428571428572
1836,1.5647863247863247
1837,1.5636630036630037
1838,1.5557997557997558
1839,1.5602930402930404
1840,1.5782661782661782
1841,1.5625396825396825
1842,1.558046398046398
1843,1.5782661782661782
1844,1.5906227106227109
1845,1.6052258852258852
1846,1.5984859584859583
1847,1.6085958485958487
1848,1.615335775335775
1849,1.6265689865689863
1850,1.647912087912088
1851,1.6512820512820512
1852,1.667008547008547
1853,1.6748717948717948
1854,1.6748717948717948
1855,1.7018315018315018
1856,1.7242979242979244
1857,1.7366544566544566
1858,1.757997557997558
1859,1.7624908424908423
1860,1.7512576312576311
1861,1.75013431013431
1862,1.7624908424908423
1863,1.757997557997558
1864,1.7422710622710622
1865,1.7523809523809524
1866,1.7332844932844933
1867,1.7366544566544566
1868,1.7265445665445665
1869,1.7153113553113553
1870,1.7175579975579975
1871,1.7153113553113553
1872,1.722051282051282
1873,1.7096947496947497
1874,1.7141880341880342
1875,1.7085714285714286
1876,1.7198046398046398
1877,1.7287912087912087
1878,1.7332844932844933
1879,1.7344078144078143
1880,1.7445177045177045
1881,1.7523809523809524
1882,1.7535042735042734
1883,1.7591208791208792
1884,1.7613675213675213
1885,1.7669841269841269
1886,1.8018070818070815
1887,1.8175335775335772
1888,1.8388766788766788
1889,1.82989010989011
1890,1.811916971916972
1891,1.8242735042735043
1892,1.8175335775335772
1893,1.7905738705738703
1894,1.802930402930403
1895,1.8175335775335772
1896,1.832136752136752
1897,1.822026862026862
1898,1.8186568986568987
1899,1.8018070818070815
1900,1.8096703296703296
1901,1.82989010989011
1902,1.827643467643468
1903,1.802930402930403
1904,1.7894505494505497
1905,1.802930402930403
1906,1.8141636141636144
1907,1.8265201465201464
1908,1.8332600732600728
1909,1.820903540903541
1910,1.8063003663003665
1911,1.7916971916971918
1912,1.768107448107448
1913,1.7714774114774114
1914,1.7602442002442005
1915,1.7602442002442005
1916,1.777094017094017
1917,1.7872039072039072
1918,1.7647374847374848
1919,1.7860805860805862
1920,1.7804639804639804
1921,1.784957264957265
1922,1.7894505494505497
1923,1.7860805860805862
1924,1.7714774114774114
1925,1.7445177045177045
1926,1.7321611721611725
1927,1.737777777777778
1928,1.757997557997558
1929,1.7613675213675213
1930,1.757997557997558
1931,1.7613675213675213
1932,1.7669841269841269
1933,1.7445177045177045
1934,1.7546275946275949
1935,1.757997557997558
1936,1.7714774114774114
1937,1.74002442002442
1938,1.7344078144078143
1939,1.7647374847374848
1940,1.7669841269841269
1941,1.749010989010989
1942,1.7411477411477412
1943,1.74002442002442
1944,1.7445177045177045
1945,1.783833943833944
1946,1.784957264957265
1947,1.7815873015873016
1948,1.7714774114774114
1949,1.7658608058608058
1950,1.7467643467643468
1951,1.74002442002442
1952,1.7546275946275949
1953,1.7512576312576311
1954,1.7591208791208792
1955,1.7636141636141636
1956,1.7636141636141636
1957,1.7456410256410255
1958,1.7512576312576311
1959,1.738901098901099
1960,1.7478876678876678
1961,1.7344078144078143
1962,1.7478876678876678
1963,1.75013431013431
1964,1.7782173382173383
1965,1.8074236874236875
1966,1.8265201465201464
1967,1.857973137973138
1968,1.8635897435897435
1969,1.85010989010989
1970,1.8534798534798536
1971,1.842246642246642
1972,1.8096703296703296
1973,1.7737240537240535
1974,1.7512576312576311
1975,1.7355311355311356
1976,1.7467643467643468
1977,1.7546275946275949
1978,1.75013431013431
1979,1.7557509157509157
1980,1.7478876678876678
1981,1.7265445665445665
1982,1.6962148962148962
1983,1.6950915750915752
1984,1.847863247863248
1985,2.25001221001221
1986,2.868962148962149
1987,3.331770451770452
1988,3.3778266178266176
1989,2.9936507936507937
1990,2.488156288156288
1991,2.03995115995116
1992,1.7905738705738703
1993,1.6546520146520147
1994,1.613089133089133
1995,1.576019536019536
1996,1.5524297924297925
1997,1.5456898656898657
1998,1.5423199023199023
1999,1.511990231990232
