Index,II
0,2.5094993894993896
1,2.087130647130647
2,1.8107936507936508
3,1.677118437118437
4,1.6164590964590964
5,1.5962393162393165
6,1.5647863247863247
7,1.5501831501831502
8,1.549059829059829
9,1.5423199023199023
10,1.5456898656898657
11,1.5344566544566545
12,1.538949938949939
13,1.546813186813187
14,1.5423199023199023
15,1.5333333333333334
16,1.5378266178266178
17,1.5378266178266178
18,1.546813186813187
19,1.5501831501831502
20,1.5569230769230769
21,1.5715262515262516
22,1.5838827838827838
23,1.5838827838827838
24,1.5793894993894997
25,1.5962393162393165
26,1.5951159951159952
27,1.5962393162393165
28,1.5962393162393165
29,1.6052258852258852
30,1.61982905982906
31,1.6299389499389498
32,1.6434188034188033
33,1.647912087912088
34,1.658021978021978
35,1.6625152625152626
36,1.6827350427350427
37,1.683858363858364
38,1.710818070818071
39,1.7321611721611725
40,1.74002442002442
41,1.7557509157509157
42,1.7827106227106226
43,1.7916971916971918
44,1.7860805860805862
45,1.784957264957265
46,1.7905738705738703
47,1.7669841269841269
48,1.75013431013431
49,1.7433943833943837
50,1.722051282051282
51,1.7186813186813186
52,1.7186813186813186
53,1.7063247863247863
54,1.6804884004884004
55,1.686105006105006
56,1.6995848595848595
57,1.683858363858364
58,1.686105006105006
59,1.6894749694749696
60,1.702954822954823
61,1.705201465201465
62,1.6917216117216116
63,1.702954822954823
64,1.7096947496947497
65,1.711941391941392
66,1.704078144078144
67,1.7074481074481074
68,1.7096947496947497
69,1.7153113553113553
70,1.7254212454212454
71,1.7321611721611725
72,1.7186813186813186
73,1.7366544566544566
74,1.731037851037851
75,1.7366544566544566
76,1.7456410256410255
77,1.7456410256410255
78,1.7557509157509157
79,1.7478876678876678
80,1.757997557997558
81,1.7535042735042734
82,1.757997557997558
83,1.7647374847374848
84,1.749010989010989
85,1.7636141636141636
86,1.7523809523809524
87,1.7467643467643468
88,1.75013431013431
89,1.749010989010989
90,1.756874236874237
91,1.7624908424908423
92,1.7703540903540904
93,1.7703540903540904
94,1.7647374847374848
95,1.7737240537240535
96,1.7804639804639804
97,1.7658608058608058
98,1.7658608058608058
99,1.7737240537240535
100,1.7692307692307692
101,1.7624908424908423
102,1.7703540903540904
103,1.7827106227106226
104,1.8096703296703296
105,1.8647130647130647
106,1.8894261294261292
107,1.913015873015873
108,1.922002442002442
109,1.9163858363858364
110,1.8961660561660565
111,1.8927960927960927
112,1.8624664224664225
113,1.8265201465201464
114,1.8085470085470088
115,1.7860805860805862
116,1.7939438339438338
117,1.783833943833944
118,1.7815873015873016
119,1.7602442002442005
120,1.7613675213675213
121,1.7804639804639804
122,1.784957264957265
123,1.7512576312576311
124,1.7433943833943837
125,1.9017826617826616
126,2.3657142857142857
127,2.9981440781440782
128,3.4912820512820515
129,3.495775335775336
130,3.212698412698413
131,2.6162148962148963
132,2.1264468864468866
133,1.841123321123321
134,1.713064713064713
135,1.6456654456654456
136,1.6288156288156288
137,1.6052258852258852
138,1.5793894993894997
139,1.5771428571428572
140,1.568156288156288
141,1.5546764346764346
142,1.5546764346764346
143,1.558046398046398
144,1.5513064713064713
145,1.5591697191697191
146,1.546813186813187
147,1.5513064713064713
148,1.5535531135531135
149,1.538949938949939
150,1.5378266178266178
151,1.5344566544566545
152,1.5355799755799755
153,1.538949938949939
154,1.5378266178266178
155,1.547936507936508
156,1.558046398046398
157,1.5704029304029303
158,1.573772893772894
159,1.5827594627594628
160,1.5872527472527471
161,1.5894993894993894
162,1.6007326007326008
163,1.6063492063492064
164,1.6344322344322344
165,1.6445421245421246
166,1.6467887667887668
167,1.6501587301587302
168,1.6613919413919414
169,1.6681318681318682
170,1.683858363858364
171,1.705201465201465
172,1.722051282051282
173,1.7366544566544566
174,1.756874236874237
175,1.7613675213675213
176,1.7692307692307692
177,1.7546275946275949
178,1.7467643467643468
179,1.722051282051282
180,1.704078144078144
181,1.705201465201465
182,1.7074481074481074
183,1.6973382173382174
184,1.6816117216117217
185,1.6715018315018315
186,1.675995115995116
187,1.675995115995116
188,1.686105006105006
189,1.686105006105006
190,1.6692551892551892
191,1.6737484737484738
192,1.686105006105006
193,1.6793650793650794
194,1.6917216117216116
195,1.6883516483516483
196,1.6995848595848595
197,1.7018315018315018
198,1.6962148962148962
199,1.702954822954823
200,1.7096947496947497
201,1.7231746031746031
202,1.7063247863247863
203,1.7186813186813186
204,1.7074481074481074
205,1.7164346764346765
206,1.72991452991453
207,1.7287912087912087
208,1.7254212454212454
209,1.72991452991453
210,1.7186813186813186
211,1.731037851037851
212,1.7231746031746031
213,1.7153113553113553
214,1.7153113553113553
215,1.7265445665445665
216,1.722051282051282
217,1.7287912087912087
218,1.710818070818071
219,1.722051282051282
220,1.7411477411477412
221,1.737777777777778
222,1.737777777777778
223,1.7456410256410255
224,1.7478876678876678
225,1.7591208791208792
226,1.75013431013431
227,1.7467643467643468
228,1.756874236874237
229,1.7557509157509157
230,1.7478876678876678
231,1.7602442002442005
232,1.7535042735042734
233,1.757997557997558
234,1.757997557997558
235,1.7737240537240535
236,1.7726007326007327
237,1.775970695970696
238,1.7714774114774114
239,1.777094017094017
240,1.7636141636141636
241,1.7692307692307692
242,1.7714774114774114
243,1.7636141636141636
244,1.7726007326007327
245,1.7591208791208792
246,1.7467643467643468
247,1.75013431013431
248,1.749010989010989
249,1.7546275946275949
250,1.7860805860805862
251,1.8164102564102564
252,1.8512332112332115
253,1.874822954822955
254,1.8984126984126983
255,1.9062759462759464
256,1.8736996336996337
257,1.8624664224664225
258,1.8568498168498169
259,1.827643467643468
260,1.7973137973137974
261,1.7860805860805862
262,1.783833943833944
263,1.7815873015873016
264,1.7815873015873016
265,1.7748473748473748
266,1.779340659340659
267,1.7714774114774114
268,1.7894505494505497
269,1.784957264957265
270,1.7512576312576311
271,1.802930402930403
272,2.063540903540904
273,2.608351648351648
274,3.2059584859584858
275,3.4946520146520146
276,3.3778266178266176
277,2.922881562881563
278,2.3275213675213675
279,1.9444688644688648
280,1.7546275946275949
281,1.6681318681318682
282,1.61982905982906
283,1.5872527472527471
284,1.5501831501831502
285,1.5423199023199023
286,1.5434432234432234
287,1.5367032967032968
288,1.5265934065934066
289,1.5243467643467643
290,1.5344566544566545
291,1.5310866910866912
292,1.538949938949939
293,1.5378266178266178
294,1.5367032967032968
295,1.5288400488400489
296,1.5445665445665446
297,1.568156288156288
298,1.573772893772894
299,1.5647863247863247
300,1.5569230769230769
301,1.567032967032967
302,1.5614163614163614
303,1.5614163614163614
304,1.5827594627594628
305,1.585006105006105
306,1.574896214896215
307,1.5782661782661782
308,1.5872527472527471
309,1.5996092796092796
310,1.6220757020757022
311,1.6142124542124543
312,1.61982905982906
313,1.6299389499389498
314,1.6546520146520147
315,1.6692551892551892
316,1.6737484737484738
317,1.683858363858364
318,1.6928449328449329
319,1.705201465201465
320,1.7265445665445665
321,1.7433943833943837
322,1.7692307692307692
323,1.7647374847374848
324,1.757997557997558
325,1.7591208791208792
326,1.7546275946275949
327,1.7411477411477412
328,1.722051282051282
329,1.7175579975579975
330,1.704078144078144
331,1.6984615384615385
332,1.6917216117216116
333,1.683858363858364
334,1.678241758241758
335,1.6804884004884004
336,1.6737484737484738
337,1.677118437118437
338,1.6883516483516483
339,1.6894749694749696
340,1.6917216117216116
341,1.6928449328449329
342,1.6984615384615385
343,1.6905982905982906
344,1.7186813186813186
345,1.711941391941392
346,1.722051282051282
347,1.7265445665445665
348,1.737777777777778
349,1.7254212454212454
350,1.7344078144078143
351,1.7175579975579975
352,1.7085714285714286
353,1.710818070818071
354,1.6973382173382174
355,1.704078144078144
356,1.6962148962148962
357,1.713064713064713
358,1.7153113553113553
359,1.7254212454212454
360,1.7456410256410255
361,1.7231746031746031
362,1.731037851037851
363,1.713064713064713
364,1.7254212454212454
365,1.7254212454212454
366,1.7164346764346765
367,1.7153113553113553
368,1.7063247863247863
369,1.7074481074481074
370,1.7074481074481074
371,1.7074481074481074
372,1.7141880341880342
373,1.7063247863247863
374,1.713064713064713
375,1.704078144078144
376,1.705201465201465
377,1.6872283272283273
378,1.656898656898657
379,1.6827350427350427
380,1.7321611721611725
381,1.7535042735042734
382,1.7624908424908423
383,1.7445177045177045
384,1.7355311355311356
385,1.7231746031746031
386,1.7164346764346765
387,1.6995848595848595
388,1.705201465201465
389,1.7198046398046398
390,1.7141880341880342
391,1.7175579975579975
392,1.7321611721611725
393,1.722051282051282
394,1.7254212454212454
395,1.7231746031746031
396,1.7242979242979244
397,1.7209279609279609
398,1.6973382173382174
399,1.6973382173382174
400,1.702954822954823
401,1.7141880341880342
402,1.7344078144078143
403,1.7287912087912087
404,1.731037851037851
405,1.7332844932844933
406,1.7433943833943837
407,1.7355311355311356
408,1.7355311355311356
409,1.74002442002442
410,1.7355311355311356
411,1.7355311355311356
412,1.7366544566544566
413,1.722051282051282
414,1.710818070818071
415,1.7164346764346765
416,1.7018315018315018
417,1.705201465201465
418,1.7063247863247863
419,1.722051282051282
420,1.6995848595848595
421,1.6905982905982906
422,1.7276678876678877
423,1.7872039072039072
424,1.8253968253968251
425,1.8512332112332115
426,1.832136752136752
427,1.8175335775335772
428,1.813040293040293
429,1.8141636141636144
430,1.784957264957265
431,1.7478876678876678
432,1.7209279609279609
433,1.7153113553113553
434,1.7186813186813186
435,1.7153113553113553
436,1.7074481074481074
437,1.7096947496947497
438,1.7074481074481074
439,1.7007081807081808
440,1.6883516483516483
441,1.6512820512820512
442,1.702954822954823
443,2.020854700854701
444,2.63980463980464
445,3.213821733821734
446,3.36996336996337
447,3.0576800976800977
448,2.640927960927961
449,2.176996336996337
450,1.8534798534798536
451,1.7096947496947497
452,1.6411721611721612
453,1.5973626373626373
454,1.5715262515262516
455,1.549059829059829
456,1.5378266178266178
457,1.5277167277167276
458,1.5277167277167276
459,1.5187301587301587
460,1.522100122100122
461,1.5288400488400489
462,1.5456898656898657
463,1.5378266178266178
464,1.5367032967032968
465,1.54007326007326
466,1.546813186813187
467,1.5557997557997558
468,1.5524297924297925
469,1.5602930402930404
470,1.567032967032967
471,1.5726495726495726
472,1.567032967032967
473,1.5838827838827838
474,1.6187057387057386
475,1.615335775335775
476,1.632185592185592
477,1.6344322344322344
478,1.638925518925519
479,1.6355555555555557
480,1.6378021978021975
481,1.6456654456654456
482,1.6535286935286937
483,1.6535286935286937
484,1.6456654456654456
485,1.658021978021978
486,1.6872283272283273
487,1.7074481074481074
488,1.74002442002442
489,1.7613675213675213
490,1.768107448107448
491,1.7905738705738703
492,1.804053724053724
493,1.811916971916972
494,1.804053724053724
495,1.8085470085470088
496,1.7916971916971918
497,1.7804639804639804
498,1.757997557997558
499,1.731037851037851
500,1.7198046398046398
501,1.7209279609279609
502,1.7096947496947497
503,1.7198046398046398
504,1.713064713064713
505,1.702954822954823
506,1.7186813186813186
507,1.7096947496947497
508,1.7209279609279609
509,1.7175579975579975
510,1.7254212454212454
511,1.737777777777778
512,1.7535042735042734
513,1.7624908424908423
514,1.7445177045177045
515,1.7254212454212454
516,1.6737484737484738
517,1.6378021978021975
518,1.6231990231990232
519,1.6501587301587302
520,1.686105006105006
521,1.7321611721611725
522,1.7411477411477412
523,1.749010989010989
524,1.7344078144078143
525,1.7422710622710622
526,1.737777777777778
527,1.738901098901099
528,1.738901098901099
529,1.768107448107448
530,1.7928205128205128
531,1.802930402930403
532,1.9534554334554333
533,2.4196336996337
534,3.0576800976800977
535,3.495775335775336
536,3.4946520146520146
537,3.307057387057387
538,2.66002442002442
539,2.1578998778998777
540,1.89953601953602
541,1.7591208791208792
542,1.7074481074481074
543,1.6692551892551892
544,1.6355555555555557
545,1.6333089133089134
546,1.6142124542124543
547,1.5883760683760684
548,1.5906227106227109
549,1.5816361416361415
550,1.5883760683760684
551,1.5872527472527471
552,1.5973626373626373
553,1.5827594627594628
554,1.576019536019536
555,1.5614163614163614
556,1.5715262515262516
557,1.5872527472527471
558,1.6052258852258852
559,1.615335775335775
560,1.6243223443223442
561,1.632185592185592
562,1.631062271062271
563,1.61982905982906
564,1.6333089133089134
565,1.6445421245421246
566,1.6422954822954825
567,1.6636385836385836
568,1.665885225885226
569,1.6726251526251523
570,1.677118437118437
571,1.686105006105006
572,1.7085714285714286
573,1.704078144078144
574,1.7153113553113553
575,1.7321611721611725
576,1.7276678876678877
577,1.7321611721611725
578,1.75013431013431
579,1.7658608058608058
580,1.7726007326007327
581,1.7535042735042734
582,1.7557509157509157
583,1.738901098901099
584,1.722051282051282
585,1.713064713064713
586,1.6984615384615385
587,1.6816117216117217
588,1.6726251526251523
589,1.667008547008547
590,1.6602686202686203
591,1.658021978021978
592,1.6681318681318682
593,1.6681318681318682
594,1.6692551892551892
595,1.6524053724053724
596,1.6647619047619049
597,1.6726251526251523
598,1.675995115995116
599,1.6715018315018315
600,1.6613919413919414
601,1.675995115995116
602,1.6703785103785105
603,1.686105006105006
604,1.6973382173382174
605,1.7007081807081808
606,1.7175579975579975
607,1.7141880341880342
608,1.7141880341880342
609,1.7242979242979244
610,1.7209279609279609
611,1.7186813186813186
612,1.722051282051282
613,1.7332844932844933
614,1.7355311355311356
615,1.7411477411477412
616,1.7467643467643468
617,1.731037851037851
618,1.7321611721611725
619,1.7478876678876678
620,1.7456410256410255
621,1.7344078144078143
622,1.737777777777778
623,1.7287912087912087
624,1.7355311355311356
625,1.7467643467643468
626,1.7647374847374848
627,1.7714774114774114
628,1.7647374847374848
629,1.7613675213675213
630,1.7523809523809524
631,1.7535042735042734
632,1.7546275946275949
633,1.7602442002442005
634,1.7591208791208792
635,1.757997557997558
636,1.756874236874237
637,1.7647374847374848
638,1.757997557997558
639,1.7467643467643468
640,1.7512576312576311
641,1.7557509157509157
642,1.7669841269841269
643,1.757997557997558
644,1.7726007326007327
645,1.784957264957265
646,1.7916971916971918
647,1.7815873015873016
648,1.7894505494505497
649,1.7703540903540904
650,1.777094017094017
651,1.775970695970696
652,1.779340659340659
653,1.7726007326007327
654,1.7602442002442005
655,1.757997557997558
656,1.7624908424908423
657,1.757997557997558
658,1.7523809523809524
659,1.7703540903540904
660,1.7647374847374848
661,1.7714774114774114
662,1.7737240537240535
663,1.7714774114774114
664,1.7658608058608058
665,1.7523809523809524
666,1.7287912087912087
667,1.7467643467643468
668,1.7782173382173383
669,1.796190476190476
670,1.795067155067155
671,1.800683760683761
672,1.795067155067155
673,1.7905738705738703
674,1.7883272283272282
675,1.775970695970696
676,1.768107448107448
677,1.784957264957265
678,1.7804639804639804
679,1.8051770451770448
680,1.8085470085470088
681,1.8164102564102564
682,1.8051770451770448
683,1.802930402930403
684,1.7883272283272282
685,1.7669841269841269
686,1.7669841269841269
687,1.775970695970696
688,1.7973137973137974
689,1.7939438339438338
690,1.777094017094017
691,1.7737240537240535
692,1.768107448107448
693,1.7669841269841269
694,1.7827106227106226
695,1.7726007326007327
696,1.775970695970696
697,1.777094017094017
698,1.7827106227106226
699,1.7782173382173383
700,1.7703540903540904
701,1.783833943833944
702,1.800683760683761
703,1.8018070818070815
704,1.8456166056166057
705,1.877069597069597
706,1.9017826617826616
707,1.9152625152625156
708,1.914139194139194
709,1.8961660561660565
710,1.8804395604395605
711,1.868083028083028
712,1.8467399267399267
713,1.8186568986568987
714,1.8074236874236875
715,1.7995604395604397
716,1.7973137973137974
717,1.804053724053724
718,1.8107936507936508
719,1.8018070818070815
720,1.813040293040293
721,1.811916971916972
722,1.768107448107448
723,1.783833943833944
724,1.9455921855921856
725,2.376947496947497
726,2.988034188034188
727,3.457582417582417
728,3.49015873015873
729,3.131819291819292
730,2.5825152625152623
731,2.0882539682539685
732,1.8287667887667889
733,1.7164346764346765
734,1.658021978021978
735,1.6243223443223442
736,1.6052258852258852
737,1.574896214896215
738,1.5704029304029303
739,1.5591697191697191
740,1.5535531135531135
741,1.5333333333333334
742,1.5232234432234433
743,1.5288400488400489
744,1.5344566544566545
745,1.52996336996337
746,1.5355799755799755
747,1.5524297924297925
748,1.5513064713064713
749,1.5546764346764346
750,1.5625396825396825
751,1.5591697191697191
752,1.567032967032967
753,1.5816361416361415
754,1.5906227106227109
755,1.5805128205128205
756,1.5906227106227109
757,1.573772893772894
758,1.5602930402930404
759,1.5625396825396825
760,1.568156288156288
761,1.5872527472527471
762,1.586129426129426
763,1.585006105006105
764,1.592869352869353
765,1.5917460317460317
766,1.593992673992674
767,1.6085958485958487
768,1.611965811965812
769,1.615335775335775
770,1.61982905982906
771,1.6445421245421246
772,1.6602686202686203
773,1.6715018315018315
774,1.6726251526251523
775,1.6748717948717948
776,1.7096947496947497
777,1.7164346764346765
778,1.731037851037851
779,1.7344078144078143
780,1.7366544566544566
781,1.74002442002442
782,1.7456410256410255
783,1.737777777777778
784,1.7231746031746031
785,1.7096947496947497
786,1.7242979242979244
787,1.7265445665445665
788,1.7186813186813186
789,1.7242979242979244
790,1.731037851037851
791,1.7332844932844933
792,1.7198046398046398
793,1.705201465201465
794,1.7141880341880342
795,1.704078144078144
796,1.713064713064713
797,1.711941391941392
798,1.6973382173382174
799,1.7096947496947497
800,1.6950915750915752
801,1.705201465201465
802,1.710818070818071
803,1.705201465201465
804,1.6962148962148962
805,1.6883516483516483
806,1.6647619047619049
807,1.6737484737484738
808,1.6804884004884004
809,1.6950915750915752
810,1.6827350427350427
811,1.6973382173382174
812,1.7164346764346765
813,1.7175579975579975
814,1.702954822954823
815,1.7186813186813186
816,1.722051282051282
817,1.7287912087912087
818,1.7254212454212454
819,1.7433943833943837
820,1.7422710622710622
821,1.7422710622710622
822,1.7445177045177045
823,1.7366544566544566
824,1.731037851037851
825,1.738901098901099
826,1.7231746031746031
827,1.7366544566544566
828,1.738901098901099
829,1.7355311355311356
830,1.7332844932844933
831,1.7231746031746031
832,1.710818070818071
833,1.7085714285714286
834,1.7074481074481074
835,1.7141880341880342
836,1.72991452991453
837,1.7433943833943837
838,1.731037851037851
839,1.7411477411477412
840,1.749010989010989
841,1.7411477411477412
842,1.7276678876678877
843,1.7186813186813186
844,1.7366544566544566
845,1.7411477411477412
846,1.7445177045177045
847,1.7355311355311356
848,1.7411477411477412
849,1.7411477411477412
850,1.7669841269841269
851,1.7737240537240535
852,1.7512576312576311
853,1.7422710622710622
854,1.7467643467643468
855,1.72991452991453
856,1.7186813186813186
857,1.7074481074481074
858,1.713064713064713
859,1.7198046398046398
860,1.7209279609279609
861,1.7478876678876678
862,1.7916971916971918
863,1.831013431013431
864,1.8523565323565323
865,1.8433699633699636
866,1.8343833943833945
867,1.8164102564102564
868,1.8164102564102564
869,1.8018070818070815
870,1.7782173382173383
871,1.7512576312576311
872,1.7535042735042734
873,1.75013431013431
874,1.7411477411477412
875,1.738901098901099
876,1.722051282051282
877,1.7175579975579975
878,1.7141880341880342
879,1.7231746031746031
880,1.686105006105006
881,1.677118437118437
882,1.8152869352869352
883,2.2882051282051283
884,2.9195115995115994
885,3.3778266178266176
886,3.373333333333333
887,2.9644444444444447
888,2.469059829059829
889,2.018608058608059
890,1.7624908424908423
891,1.6501587301587302
892,1.6018559218559218
893,1.565909645909646
894,1.5557997557997558
895,1.5344566544566545
896,1.520976800976801
897,1.5243467643467643
898,1.514236874236874
899,1.5187301587301587
900,1.5153601953601954
901,1.5153601953601954
902,1.522100122100122
903,1.5153601953601954
904,1.5187301587301587
905,1.5322100122100122
906,1.52996336996337
907,1.5355799755799755
908,1.549059829059829
909,1.5569230769230769
910,1.549059829059829
911,1.546813186813187
912,1.5524297924297925
913,1.576019536019536
914,1.5906227106227109
915,1.6007326007326008
916,1.5872527472527471
917,1.604102564102564
918,1.6063492063492064
919,1.6108424908424908
920,1.632185592185592
921,1.6378021978021975
922,1.638925518925519
923,1.6557753357753358
924,1.667008547008547
925,1.656898656898657
926,1.6692551892551892
927,1.6905982905982906
928,1.6973382173382174
929,1.7164346764346765
930,1.722051282051282
931,1.7433943833943837
932,1.7714774114774114
933,1.7748473748473748
934,1.783833943833944
935,1.7669841269841269
936,1.7726007326007327
937,1.7703540903540904
938,1.7624908424908423
939,1.7546275946275949
940,1.7366544566544566
941,1.7209279609279609
942,1.7096947496947497
943,1.6872283272283273
944,1.678241758241758
945,1.684981684981685
946,1.677118437118437
947,1.6715018315018315
948,1.6726251526251523
949,1.6894749694749696
950,1.6928449328449329
951,1.702954822954823
952,1.6984615384615385
953,1.7018315018315018
954,1.6995848595848595
955,1.704078144078144
956,1.7344078144078143
957,1.7456410256410255
958,1.7355311355311356
959,1.7276678876678877
960,1.713064713064713
961,1.7265445665445665
962,1.7175579975579975
963,1.7186813186813186
964,1.7411477411477412
965,1.7647374847374848
966,1.7636141636141636
967,1.7624908424908423
968,1.7726007326007327
969,1.7782173382173383
970,1.7860805860805862
971,1.7748473748473748
972,1.7703540903540904
973,1.7737240537240535
974,1.777094017094017
975,1.7714774114774114
976,1.7782173382173383
977,1.7737240537240535
978,1.7669841269841269
979,1.784957264957265
980,1.8164102564102564
981,1.7815873015873016
982,1.749010989010989
983,1.7321611721611725
984,1.7512576312576311
985,1.7995604395604397
986,1.8377533577533576
987,1.832136752136752
988,1.823150183150183
989,1.7995604395604397
990,1.831013431013431
991,1.8343833943833945
992,1.8343833943833945
993,1.7916971916971918
994,1.7984371184371184
995,1.784957264957265
996,1.7703540903540904
997,1.7636141636141636
998,1.7624908424908423
999,1.749010989010989
1000,1.7546275946275949
1001,1.737777777777778
1002,1.7647374847374848
1003,1.8444932844932844
1004,1.8883028083028084
1005,1.8984126984126983
1006,1.869206349206349
1007,1.832136752136752
1008,1.9051526251526247
1009,1.932112332112332
1010,1.891672771672772
1011,1.855726495726496
1012,1.8849328449328449
1013,1.911892551892552
1014,1.922002442002442
1015,1.9197557997558
1016,1.932112332112332
1017,1.920879120879121
1018,1.914139194139194
1019,1.886056166056166
1020,1.8736996336996337
1021,1.84
1022,1.820903540903541
1023,1.8074236874236875
1024,1.775970695970696
1025,1.7602442002442005
1026,1.749010989010989
1027,1.7355311355311356
1028,1.7445177045177045
1029,1.768107448107448
1030,1.7546275946275949
1031,1.7186813186813186
1032,1.7748473748473748
1033,2.0388278388278387
1034,2.595995115995116
1035,3.2463980463980464
1036,3.495775335775336
1037,3.4587057387057385
1038,3.045323565323565
1039,2.4623199023199023
1040,2.023101343101343
1041,1.7624908424908423
1042,1.6445421245421246
1043,1.593992673992674
1044,1.5602930402930404
1045,1.54007326007326
1046,1.51985347985348
1047,1.514236874236874
1048,1.501880341880342
1049,1.495140415140415
1050,1.4996336996336996
1051,1.5086202686202683
1052,1.5052503052503052
1053,1.4973870573870574
1054,1.4996336996336996
1055,1.5074969474969475
1056,1.4928937728937728
1057,1.4906471306471307
1058,1.5097435897435898
1059,1.522100122100122
1060,1.52996336996337
1061,1.549059829059829
1062,1.5636630036630037
1063,1.5726495726495726
1064,1.5704029304029303
1065,1.5614163614163614
1066,1.567032967032967
1067,1.5625396825396825
1068,1.574896214896215
1069,1.5692796092796093
1070,1.5917460317460317
1071,1.6097191697191695
1072,1.5996092796092796
1073,1.6187057387057386
1074,1.6344322344322344
1075,1.6681318681318682
1076,1.684981684981685
1077,1.686105006105006
1078,1.7074481074481074
1079,1.6872283272283273
1080,1.722051282051282
1081,1.7602442002442005
1082,1.7905738705738703
1083,1.8085470085470088
1084,1.8186568986568987
1085,1.831013431013431
1086,1.8332600732600728
1087,1.8343833943833945
1088,1.8332600732600728
1089,1.8343833943833945
1090,1.784957264957265
1091,1.7669841269841269
1092,1.8051770451770448
1093,1.8096703296703296
1094,1.8164102564102564
1095,1.8253968253968251
1096,1.85010989010989
1097,1.8635897435897435
1098,1.8725763125763129
1099,1.847863247863248
1100,1.8242735042735043
1101,1.8175335775335772
1102,1.8063003663003665
1103,1.7827106227106226
1104,1.74002442002442
1105,1.7209279609279609
1106,1.7546275946275949
1107,1.7815873015873016
1108,1.7669841269841269
1109,1.7692307692307692
1110,1.7669841269841269
1111,1.749010989010989
1112,1.7366544566544566
1113,1.7748473748473748
1114,1.8152869352869352
1115,1.8253968253968251
1116,1.7916971916971918
1117,1.7512576312576311
1118,1.7198046398046398
1119,1.7422710622710622
1120,1.7984371184371184
1121,1.8164102564102564
1122,1.7995604395604397
1123,1.7748473748473748
1124,1.7636141636141636
1125,1.784957264957265
1126,1.7737240537240535
1127,1.7737240537240535
1128,1.7658608058608058
1129,1.7624908424908423
1130,1.7242979242979244
1131,1.713064713064713
1132,1.713064713064713
1133,1.710818070818071
1134,1.7063247863247863
1135,1.7231746031746031
1136,1.7096947496947497
1137,1.7018315018315018
1138,1.713064713064713
1139,1.7164346764346765
1140,1.713064713064713
1141,1.7287912087912087
1142,1.7478876678876678
1143,1.7422710622710622
1144,1.7366544566544566
1145,1.7276678876678877
1146,1.731037851037851
1147,1.7366544566544566
1148,1.7433943833943837
1149,1.749010989010989
1150,1.7411477411477412
1151,1.7287912087912087
1152,1.7242979242979244
1153,1.7411477411477412
1154,1.7546275946275949
1155,1.7209279609279609
1156,1.713064713064713
1157,1.713064713064713
1158,1.7276678876678877
1159,1.7433943833943837
1160,1.7613675213675213
1161,1.795067155067155
1162,1.831013431013431
1163,1.8456166056166057
1164,1.84
1165,1.820903540903541
1166,1.8074236874236875
1167,1.8051770451770448
1168,1.7815873015873016
1169,1.7557509157509157
1170,1.7411477411477412
1171,1.722051282051282
1172,1.7141880341880342
1173,1.7074481074481074
1174,1.713064713064713
1175,1.7265445665445665
1176,1.7366544566544566
1177,1.7467643467643468
1178,1.7231746031746031
1179,1.6962148962148962
1180,1.7254212454212454
1181,1.96019536019536
1182,2.515115995115995
1183,3.1026129426129425
1184,3.331770451770452
1185,3.1194627594627597
1186,2.712820512820513
1187,2.27023199023199
1188,1.920879120879121
1189,1.7254212454212454
1190,1.6288156288156288
1191,1.5513064713064713
1192,1.549059829059829
1193,1.547936507936508
1194,1.522100122100122
1195,1.5187301587301587
1196,1.5456898656898657
1197,1.5535531135531135
1198,1.5883760683760684
1199,1.6220757020757022
1200,1.6142124542124543
1201,1.6007326007326008
1202,1.585006105006105
1203,1.585006105006105
1204,1.6085958485958487
1205,1.6142124542124543
1206,1.6085958485958487
1207,1.5962393162393165
1208,1.620952380952381
1209,1.6378021978021975
1210,1.6254456654456657
1211,1.6175824175824176
1212,1.6108424908424908
1213,1.6175824175824176
1214,1.611965811965812
1215,1.6108424908424908
1216,1.5951159951159952
1217,1.61982905982906
1218,1.6411721611721612
1219,1.6501587301587302
1220,1.6557753357753358
1221,1.6613919413919414
1222,1.6827350427350427
1223,1.7007081807081808
1224,1.713064713064713
1225,1.7265445665445665
1226,1.7231746031746031
1227,1.7433943833943837
1228,1.7512576312576311
1229,1.7737240537240535
1230,1.7928205128205128
1231,1.811916971916972
1232,1.8085470085470088
1233,1.7916971916971918
1234,1.7726007326007327
1235,1.756874236874237
1236,1.7456410256410255
1237,1.7344078144078143
1238,1.7141880341880342
1239,1.6995848595848595
1240,1.6501587301587302
1241,1.6467887667887668
1242,1.658021978021978
1243,1.665885225885226
1244,1.6467887667887668
1245,1.6434188034188033
1246,1.6512820512820512
1247,1.6333089133089134
1248,1.632185592185592
1249,1.6355555555555557
1250,1.6220757020757022
1251,1.632185592185592
1252,1.6703785103785105
1253,1.6883516483516483
1254,1.686105006105006
1255,1.6984615384615385
1256,1.677118437118437
1257,1.659145299145299
1258,1.647912087912088
1259,1.6602686202686203
1260,1.6535286935286937
1261,1.6905982905982906
1262,1.684981684981685
1263,1.6816117216117217
1264,1.6726251526251523
1265,1.6883516483516483
1266,1.6816117216117217
1267,1.6883516483516483
1268,1.6905982905982906
1269,1.6692551892551892
1270,1.6715018315018315
1271,1.6681318681318682
1272,1.6636385836385836
1273,1.6827350427350427
1274,1.684981684981685
1275,1.7018315018315018
1276,1.6962148962148962
1277,1.6973382173382174
1278,1.6973382173382174
1279,1.7096947496947497
1280,1.7186813186813186
1281,1.722051282051282
1282,1.7287912087912087
1283,1.7456410256410255
1284,1.7748473748473748
1285,1.7714774114774114
1286,1.775970695970696
1287,1.7894505494505497
1288,1.7984371184371184
1289,1.7894505494505497
1290,1.7714774114774114
1291,1.7804639804639804
1292,1.777094017094017
1293,1.784957264957265
1294,1.7804639804639804
1295,1.7546275946275949
1296,1.74002442002442
1297,1.7231746031746031
1298,1.7209279609279609
1299,1.7332844932844933
1300,1.784957264957265
1301,1.832136752136752
1302,1.881562881562881
1303,1.8871794871794871
1304,1.8905494505494504
1305,1.8871794871794871
1306,1.891672771672772
1307,1.8714529914529916
1308,1.8433699633699636
1309,1.8175335775335772
1310,1.8018070818070815
1311,1.81978021978022
1312,1.8343833943833945
1313,1.8343833943833945
1314,1.8377533577533576
1315,1.832136752136752
1316,1.8388766788766788
1317,1.8781929181929184
1318,1.875946275946276
1319,1.8658363858363856
1320,1.9309890109890109
1321,2.255628815628816
1322,2.8206593406593408
1323,3.344126984126984
1324,3.4946520146520146
1325,3.226178266178266
1326,2.754383394383394
1327,2.294945054945055
1328,1.9747985347985348
1329,1.8164102564102564
1330,1.7321611721611725
1331,1.6793650793650794
1332,1.636678876678877
1333,1.684981684981685
1334,1.6928449328449329
1335,1.683858363858364
1336,1.659145299145299
1337,1.6254456654456657
1338,1.6074725274725274
1339,1.6074725274725274
1340,1.6220757020757022
1341,1.647912087912088
1342,1.6703785103785105
1343,1.6625152625152626
1344,1.6512820512820512
1345,1.656898656898657
1346,1.6434188034188033
1347,1.6535286935286937
1348,1.6557753357753358
1349,1.6636385836385836
1350,1.6625152625152626
1351,1.6524053724053724
1352,1.6265689865689863
1353,1.620952380952381
1354,1.6378021978021975
1355,1.6378021978021975
1356,1.6456654456654456
1357,1.659145299145299
1358,1.6737484737484738
1359,1.659145299145299
1360,1.6715018315018315
1361,1.6715018315018315
1362,1.6602686202686203
1363,1.656898656898657
1364,1.6636385836385836
1365,1.7007081807081808
1366,1.7433943833943837
1367,1.7467643467643468
1368,1.7737240537240535
1369,1.7456410256410255
1370,1.7175579975579975
1371,1.7512576312576311
1372,1.7872039072039072
1373,1.7995604395604397
1374,1.795067155067155
1375,1.7872039072039072
1376,1.768107448107448
1377,1.749010989010989
1378,1.7433943833943837
1379,1.7186813186813186
1380,1.713064713064713
1381,1.711941391941392
1382,1.6962148962148962
1383,1.6917216117216116
1384,1.6827350427350427
1385,1.705201465201465
1386,1.7141880341880342
1387,1.7254212454212454
1388,1.7254212454212454
1389,1.7175579975579975
1390,1.7265445665445665
1391,1.7433943833943837
1392,1.7411477411477412
1393,1.737777777777778
1394,1.7355311355311356
1395,1.7366544566544566
1396,1.7411477411477412
1397,1.737777777777778
1398,1.7242979242979244
1399,1.74002442002442
1400,1.7355311355311356
1401,1.7546275946275949
1402,1.757997557997558
1403,1.7557509157509157
1404,1.7748473748473748
1405,1.7804639804639804
1406,1.7872039072039072
1407,1.7860805860805862
1408,1.7658608058608058
1409,1.7557509157509157
1410,1.738901098901099
1411,1.7321611721611725
1412,1.72991452991453
1413,1.7478876678876678
1414,1.7714774114774114
1415,1.783833943833944
1416,1.7782173382173383
1417,1.7726007326007327
1418,1.7703540903540904
1419,1.768107448107448
1420,1.7546275946275949
1421,1.75013431013431
1422,1.7456410256410255
1423,1.7815873015873016
1424,1.8074236874236875
1425,1.784957264957265
1426,1.7714774114774114
1427,1.7669841269841269
1428,1.757997557997558
1429,1.75013431013431
1430,1.731037851037851
1431,1.7332844932844933
1432,1.737777777777778
1433,1.737777777777778
1434,1.7164346764346765
1435,1.7141880341880342
1436,1.7018315018315018
1437,1.7074481074481074
1438,1.6872283272283273
1439,1.7007081807081808
1440,1.722051282051282
1441,1.7366544566544566
1442,1.7153113553113553
1443,1.6894749694749696
1444,1.705201465201465
1445,1.72991452991453
1446,1.7535042735042734
1447,1.7782173382173383
1448,1.804053724053724
1449,1.8355067155067155
1450,1.8467399267399267
1451,1.8444932844932844
1452,1.8377533577533576
1453,1.820903540903541
1454,1.8074236874236875
1455,1.7894505494505497
1456,1.7647374847374848
1457,1.749010989010989
1458,1.7355311355311356
1459,1.7411477411477412
1460,1.749010989010989
1461,1.7557509157509157
1462,1.7445177045177045
1463,1.7445177045177045
1464,1.7433943833943837
1465,1.7624908424908423
1466,1.722051282051282
1467,1.6973382173382174
1468,1.7973137973137974
1469,2.166886446886447
1470,2.777973137973138
1471,3.264371184371184
1472,3.3654700854700854
1473,3.0565567765567767
1474,2.593748473748474
1475,2.1084737484737484
1476,1.811916971916972
1477,1.6625152625152626
1478,1.6085958485958487
1479,1.6052258852258852
1480,1.5962393162393165
1481,1.5591697191697191
1482,1.5344566544566545
1483,1.5322100122100122
1484,1.5344566544566545
1485,1.5456898656898657
1486,1.5535531135531135
1487,1.5445665445665446
1488,1.4636874236874238
1489,1.4468376068376068
1490,1.511990231990232
1491,1.5557997557997558
1492,1.5726495726495726
1493,1.565909645909646
1494,1.5367032967032968
1495,1.5277167277167276
1496,1.574896214896215
1497,1.5906227106227109
1498,1.576019536019536
1499,1.5513064713064713
1500,1.538949938949939
1501,1.546813186813187
1502,1.5445665445665446
1503,1.520976800976801
1504,1.5333333333333334
1505,1.558046398046398
1506,1.5546764346764346
1507,1.5164835164835164
1508,1.565909645909646
1509,1.61982905982906
1510,1.6490354090354091
1511,1.6636385836385836
1512,1.6625152625152626
1513,1.686105006105006
1514,1.710818070818071
1515,1.7366544566544566
1516,1.7478876678876678
1517,1.7366544566544566
1518,1.7287912087912087
1519,1.7254212454212454
1520,1.737777777777778
1521,1.7445177045177045
1522,1.7321611721611725
1523,1.7074481074481074
1524,1.684981684981685
1525,1.6692551892551892
1526,1.6456654456654456
1527,1.6434188034188033
1528,1.6265689865689863
1529,1.6254456654456657
1530,1.632185592185592
1531,1.6411721611721612
1532,1.6467887667887668
1533,1.6501587301587302
1534,1.6355555555555557
1535,1.638925518925519
1536,1.6501587301587302
1537,1.6703785103785105
1538,1.6793650793650794
1539,1.6692551892551892
1540,1.6793650793650794
1541,1.6917216117216116
1542,1.677118437118437
1543,1.667008547008547
1544,1.638925518925519
1545,1.5726495726495726
1546,1.5591697191697191
1547,1.5951159951159952
1548,1.6355555555555557
1549,1.6872283272283273
1550,1.6984615384615385
1551,1.6995848595848595
1552,1.6995848595848595
1553,1.705201465201465
1554,1.7007081807081808
1555,1.6950915750915752
1556,1.6995848595848595
1557,1.7085714285714286
1558,1.7141880341880342
1559,1.710818070818071
1560,1.8242735042735043
1561,2.206202686202686
1562,2.7903296703296703
1563,3.267741147741148
1564,3.341880341880342
1565,2.9711843711843717
1566,2.5521855921855923
1567,2.1534065934065936
1568,1.8658363858363856
1569,1.7198046398046398
1570,1.6546520146520147
1571,1.61982905982906
1572,1.5973626373626373
1573,1.5883760683760684
1574,1.574896214896215
1575,1.5906227106227109
1576,1.5782661782661782
1577,1.5602930402930404
1578,1.5692796092796093
1579,1.5894993894993894
1580,1.5962393162393165
1581,1.6108424908424908
1582,1.5872527472527471
1583,1.5445665445665446
1584,1.5692796092796093
1585,1.6007326007326008
1586,1.6344322344322344
1587,1.6265689865689863
1588,1.6108424908424908
1589,1.6052258852258852
1590,1.6108424908424908
1591,1.611965811965812
1592,1.6187057387057386
1593,1.620952380952381
1594,1.638925518925519
1595,1.6490354090354091
1596,1.6703785103785105
1597,1.678241758241758
1598,1.6715018315018315
1599,1.675995115995116
1600,1.6804884004884004
1601,1.7242979242979244
1602,1.7422710622710622
1603,1.768107448107448
1604,1.7905738705738703
1605,1.7939438339438338
1606,1.7984371184371184
1607,1.813040293040293
1608,1.8141636141636144
1609,1.8074236874236875
1610,1.8164102564102564
1611,1.7928205128205128
1612,1.7613675213675213
1613,1.7411477411477412
1614,1.7085714285714286
1615,1.6793650793650794
1616,1.675995115995116
1617,1.6726251526251523
1618,1.6602686202686203
1619,1.6692551892551892
1620,1.693968253968254
1621,1.72991452991453
1622,1.7366544566544566
1623,1.7321611721611725
1624,1.7175579975579975
1625,1.711941391941392
1626,1.7096947496947497
1627,1.7153113553113553
1628,1.710818070818071
1629,1.722051282051282
1630,1.7153113553113553
1631,1.7186813186813186
1632,1.7276678876678877
1633,1.7186813186813186
1634,1.7164346764346765
1635,1.7276678876678877
1636,1.7085714285714286
1637,1.7265445665445665
1638,1.74002442002442
1639,1.7366544566544566
1640,1.7366544566544566
1641,1.7265445665445665
1642,1.74002442002442
1643,1.7287912087912087
1644,1.713064713064713
1645,1.7344078144078143
1646,1.7523809523809524
1647,1.7658608058608058
1648,1.7737240537240535
1649,1.757997557997558
1650,1.7523809523809524
1651,1.7433943833943837
1652,1.7523809523809524
1653,1.7422710622710622
1654,1.749010989010989
1655,1.7433943833943837
1656,1.7231746031746031
1657,1.7186813186813186
1658,1.7422710622710622
1659,1.7523809523809524
1660,1.7546275946275949
1661,1.7557509157509157
1662,1.7624908424908423
1663,1.7445177045177045
1664,1.7355311355311356
1665,1.731037851037851
1666,1.731037851037851
1667,1.7422710622710622
1668,1.7546275946275949
1669,1.7692307692307692
1670,1.768107448107448
1671,1.768107448107448
1672,1.7636141636141636
1673,1.75013431013431
1674,1.7433943833943837
1675,1.7602442002442005
1676,1.7636141636141636
1677,1.7714774114774114
1678,1.7669841269841269
1679,1.7636141636141636
1680,1.7669841269841269
1681,1.7860805860805862
1682,1.7669841269841269
1683,1.7647374847374848
1684,1.738901098901099
1685,1.722051282051282
1686,1.7153113553113553
1687,1.7074481074481074
1688,1.705201465201465
1689,1.74002442002442
1690,1.7433943833943837
1691,1.75013431013431
1692,1.7860805860805862
1693,1.7737240537240535
1694,1.7860805860805862
1695,1.7939438339438338
1696,1.7939438339438338
1697,1.7703540903540904
1698,1.7624908424908423
1699,1.7692307692307692
1700,1.7782173382173383
1701,1.7692307692307692
1702,1.7669841269841269
1703,1.7703540903540904
1704,1.7714774114774114
1705,1.775970695970696
1706,1.7624908424908423
1707,1.7265445665445665
1708,1.693968253968254
1709,1.6950915750915752
1710,1.7456410256410255
1711,1.7433943833943837
1712,1.7591208791208792
1713,1.7726007326007327
1714,1.7748473748473748
1715,1.7467643467643468
1716,1.757997557997558
1717,1.7748473748473748
1718,1.7860805860805862
1719,1.7782173382173383
1720,1.7782173382173383
1721,1.7647374847374848
1722,1.7669841269841269
1723,1.7523809523809524
1724,1.738901098901099
1725,1.75013431013431
1726,1.7658608058608058
1727,1.7546275946275949
1728,1.7613675213675213
1729,1.8096703296703296
1730,1.8456166056166057
1731,1.874822954822955
1732,1.8714529914529916
1733,1.866959706959707
1734,1.866959706959707
1735,1.8568498168498169
1736,1.8624664224664225
1737,1.8355067155067155
1738,1.7939438339438338
1739,1.7703540903540904
1740,1.7456410256410255
1741,1.7411477411477412
1742,1.7411477411477412
1743,1.749010989010989
1744,1.7456410256410255
1745,1.7445177045177045
1746,1.7535042735042734
1747,1.7321611721611725
1748,1.7276678876678877
1749,1.8804395604395605
1750,2.2533821733821733
1751,2.8667155067155066
1752,3.4047863247863246
1753,3.4946520146520146
1754,3.3126739926739925
1755,2.77010989010989
1756,2.238778998778999
1757,1.9107692307692308
1758,1.7726007326007327
1759,1.6905982905982906
1760,1.6703785103785105
1761,1.636678876678877
1762,1.6333089133089134
1763,1.6187057387057386
1764,1.6097191697191695
1765,1.6108424908424908
1766,1.6231990231990232
1767,1.636678876678877
1768,1.6254456654456657
1769,1.6007326007326008
1770,1.585006105006105
1771,1.5805128205128205
1772,1.5423199023199023
1773,1.5288400488400489
1774,1.576019536019536
1775,1.6142124542124543
1776,1.6220757020757022
1777,1.5996092796092796
1778,1.5872527472527471
1779,1.585006105006105
1780,1.6007326007326008
1781,1.6029792429792429
1782,1.5996092796092796
1783,1.6074725274725274
1784,1.6074725274725274
1785,1.6018559218559218
1786,1.592869352869353
1787,1.5917460317460317
1788,1.5951159951159952
1789,1.6018559218559218
1790,1.6018559218559218
1791,1.615335775335775
1792,1.6299389499389498
1793,1.6243223443223442
1794,1.6288156288156288
1795,1.6467887667887668
1796,1.659145299145299
1797,1.6827350427350427
1798,1.6995848595848595
1799,1.7198046398046398
1800,1.7186813186813186
1801,1.7209279609279609
1802,1.731037851037851
1803,1.757997557997558
1804,1.7624908424908423
1805,1.7557509157509157
1806,1.7512576312576311
1807,1.737777777777778
1808,1.7276678876678877
1809,1.702954822954823
1810,1.677118437118437
1811,1.683858363858364
1812,1.6905982905982906
1813,1.6905982905982906
1814,1.702954822954823
1815,1.7007081807081808
1816,1.705201465201465
1817,1.686105006105006
1818,1.677118437118437
1819,1.665885225885226
1820,1.6018559218559218
1821,1.568156288156288
1822,1.5704029304029303
1823,1.6007326007326008
1824,1.6512820512820512
1825,1.6613919413919414
1826,1.6692551892551892
1827,1.6524053724053724
1828,1.6557753357753358
1829,1.6378021978021975
1830,1.6557753357753358
1831,1.659145299145299
1832,1.6636385836385836
1833,1.667008547008547
1834,1.6726251526251523
1835,1.6703785103785105
1836,1.6344322344322344
1837,1.5984859584859583
1838,1.6243223443223442
1839,1.7624908424908423
1840,1.9658119658119655
1841,1.9287423687423688
1842,1.702954822954823
1843,1.4535775335775336
1844,1.3075457875457877
1845,1.1502808302808305
1846,1.0244688644688644
1847,0.9716727716727716
1848,0.928986568986569
1849,0.9503296703296704
1850,1.0592918192918193
1851,1.2491330891330892
1852,1.541196581196581
1853,1.775970695970696
1854,1.86021978021978
1855,1.904029304029304
1856,1.9085225885225885
1857,1.9107692307692308
1858,1.955702075702076
1859,1.9747985347985348
1860,1.993894993894994
1861,1.9995115995115995
1862,2.011868131868132
1863,2.0107448107448107
1864,2.0264713064713065
1865,2.047814407814408
1866,2.063540903540904
1867,2.0264713064713065
1868,2.0174847374847373
1869,2.041074481074481
1870,2.096117216117216
1871,2.1466666666666665
1872,2.166886446886447
1873,2.1904761904761907
1874,2.214065934065934
1875,2.2354090354090355
1876,2.27023199023199
1877,2.307301587301587
1878,2.3365079365079366
1879,2.3724542124542123
1880,2.4027838827838828
1881,2.440976800976801
1882,2.455579975579976
1883,2.473553113553113
1884,2.4713064713064714
1885,2.4353601953601958
1886,2.3657142857142857
1887,2.3106715506715507
1888,2.2522588522588523
1889,2.176996336996337
1890,2.1006105006105007
1891,2.0096214896214897
1892,1.927619047619048
1893,1.869206349206349
1894,1.8175335775335772
1895,1.757997557997558
1896,1.6984615384615385
1897,1.656898656898657
1898,1.636678876678877
1899,1.632185592185592
1900,1.6288156288156288
1901,1.604102564102564
1902,1.5962393162393165
1903,1.5951159951159952
1904,1.5973626373626373
1905,1.592869352869353
1906,1.5816361416361415
1907,1.5951159951159952
1908,1.6007326007326008
1909,1.620952380952381
1910,1.6265689865689863
1911,1.6378021978021975
1912,1.656898656898657
1913,1.6501587301587302
1914,1.6490354090354091
1915,1.6445421245421246
1916,1.6490354090354091
1917,1.6299389499389498
1918,1.615335775335775
1919,1.615335775335775
1920,1.6557753357753358
1921,1.6692551892551892
1922,1.686105006105006
1923,1.665885225885226
1924,1.6299389499389498
1925,1.6254456654456657
1926,1.6187057387057386
1927,1.64004884004884
1928,1.6557753357753358
1929,1.6715018315018315
1930,1.6636385836385836
1931,1.6692551892551892
1932,1.6692551892551892
1933,1.6681318681318682
1934,1.6557753357753358
1935,1.64004884004884
1936,1.64004884004884
1937,1.6187057387057386
1938,1.659145299145299
1939,1.6883516483516483
1940,1.6816117216117217
1941,1.686105006105006
1942,1.693968253968254
1943,1.693968253968254
1944,1.6894749694749696
1945,1.665885225885226
1946,1.6647619047619049
1947,1.6917216117216116
1948,1.6995848595848595
1949,1.702954822954823
1950,1.7096947496947497
1951,1.6917216117216116
1952,1.678241758241758
1953,1.6726251526251523
1954,1.686105006105006
1955,1.711941391941392
1956,1.7164346764346765
1957,1.6973382173382174
1958,1.7074481074481074
1959,1.7366544566544566
1960,1.7242979242979244
1961,1.722051282051282
1962,1.7141880341880342
1963,1.7186813186813186
1964,1.7141880341880342
1965,1.7287912087912087
1966,1.7164346764346765
1967,1.713064713064713
1968,1.7287912087912087
1969,1.7591208791208792
1970,1.7602442002442005
1971,1.738901098901099
1972,1.7096947496947497
1973,1.7231746031746031
1974,1.711941391941392
1975,1.7186813186813186
1976,1.7535042735042734
1977,1.7512576312576311
1978,1.7355311355311356
1979,1.7321611721611725
1980,1.738901098901099
1981,1.7478876678876678
1982,1.7636141636141636
1983,1.7535042735042734
1984,1.7692307692307692
1985,1.7894505494505497
1986,1.7804639804639804
1987,1.756874236874237
1988,1.757997557997558
1989,1.7366544566544566
1990,1.7254212454212454
1991,1.7164346764346765
1992,1.7198046398046398
1993,1.74002442002442
1994,1.7411477411477412
1995,1.7613675213675213
1996,1.7860805860805862
1997,1.8085470085470088
1998,1.82989010989011
1999,1.8433699633699636
