Index,II
0,1.541196581196581
1,1.5501831501831502
2,1.538949938949939
3,1.5692796092796093
4,1.5771428571428572
5,1.5805128205128205
6,1.5951159951159952
7,1.5805128205128205
8,1.5805128205128205
9,1.5715262515262516
10,1.5827594627594628
11,1.5793894993894997
12,1.586129426129426
13,1.5715262515262516
14,1.5883760683760684
15,1.5805128205128205
16,1.604102564102564
17,1.5962393162393165
18,1.604102564102564
19,1.6074725274725274
20,1.615335775335775
21,1.6344322344322344
22,1.6333089133089134
23,1.6524053724053724
24,1.6737484737484738
25,1.6928449328449329
26,1.705201465201465
27,1.731037851037851
28,1.7332844932844933
29,1.749010989010989
30,1.777094017094017
31,1.7804639804639804
32,1.7658608058608058
33,1.7613675213675213
34,1.7591208791208792
35,1.7478876678876678
36,1.7624908424908423
37,1.7669841269841269
38,1.7535042735042734
39,1.7624908424908423
40,1.749010989010989
41,1.74002442002442
42,1.6602686202686203
43,1.6422954822954825
44,1.6422954822954825
45,1.647912087912088
46,1.6625152625152626
47,1.6703785103785105
48,1.6512820512820512
49,1.6816117216117217
50,1.667008547008547
51,1.6883516483516483
52,1.6872283272283273
53,1.6962148962148962
54,1.6524053724053724
55,1.4816605616605616
56,1.3805616605616606
57,1.3715750915750915
58,1.52996336996337
59,1.7355311355311356
60,1.72991452991453
61,1.6950915750915752
62,1.7085714285714286
63,1.796190476190476
64,1.7894505494505497
65,1.8096703296703296
66,1.8242735042735043
67,1.802930402930403
68,1.8107936507936508
69,1.7523809523809524
70,1.813040293040293
71,2.1354334554334558
72,2.7285470085470087
73,3.372210012210012
74,3.4946520146520146
75,3.3284004884004883
76,2.822905982905983
77,2.294945054945055
78,1.9512087912087912
79,1.796190476190476
80,1.800683760683761
81,1.85010989010989
82,1.783833943833944
83,1.7602442002442005
84,1.847863247863248
85,1.9287423687423688
86,1.93997557997558
87,1.9309890109890109
88,1.802930402930403
89,1.704078144078144
90,1.677118437118437
91,1.6636385836385836
92,1.6917216117216116
93,1.7141880341880342
94,1.72991452991453
95,1.768107448107448
96,1.768107448107448
97,1.7602442002442005
98,1.7804639804639804
99,1.8433699633699636
100,1.8635897435897435
101,1.8512332112332115
102,1.8242735042735043
103,1.8444932844932844
104,1.8366300366300363
105,1.8433699633699636
106,1.8804395604395605
107,1.86021978021978
108,1.8388766788766788
109,1.869206349206349
110,1.8253968253968251
111,1.8074236874236875
112,1.7905738705738703
113,1.81978021978022
114,1.8624664224664225
115,1.8984126984126983
116,1.891672771672772
117,1.8984126984126983
118,1.881562881562881
119,1.866959706959707
120,1.832136752136752
121,1.7647374847374848
122,1.7433943833943837
123,1.7546275946275949
124,1.7063247863247863
125,1.6434188034188033
126,1.576019536019536
127,1.51985347985348
128,1.494017094017094
129,1.514236874236874
130,1.5322100122100122
131,1.5310866910866912
132,1.5097435897435898
133,1.511990231990232
134,1.4861538461538462
135,1.4917704517704518
136,1.511990231990232
137,1.51985347985348
138,1.5187301587301587
139,1.5232234432234433
140,1.5367032967032968
141,1.5647863247863247
142,1.573772893772894
143,1.5917460317460317
144,1.6063492063492064
145,1.6018559218559218
146,1.611965811965812
147,1.5906227106227109
148,1.592869352869353
149,1.6085958485958487
150,1.6097191697191695
151,1.6254456654456657
152,1.6254456654456657
153,1.6265689865689863
154,1.6355555555555557
155,1.6411721611721612
156,1.6726251526251523
157,1.6703785103785105
158,1.658021978021978
159,1.6692551892551892
160,1.667008547008547
161,1.6804884004884004
162,1.6883516483516483
163,1.6647619047619049
164,1.6636385836385836
165,1.675995115995116
166,1.665885225885226
167,1.665885225885226
168,1.6557753357753358
169,1.6512820512820512
170,1.675995115995116
171,1.702954822954823
172,1.702954822954823
173,1.704078144078144
174,1.7096947496947497
175,1.7096947496947497
176,1.7063247863247863
177,1.6984615384615385
178,1.693968253968254
179,1.6917216117216116
180,1.7007081807081808
181,1.683858363858364
182,1.6894749694749696
183,1.6793650793650794
184,1.6804884004884004
185,1.684981684981685
186,1.7018315018315018
187,1.7366544566544566
188,1.7726007326007327
189,1.7692307692307692
190,1.7523809523809524
191,1.757997557997558
192,1.7613675213675213
193,1.756874236874237
194,1.7445177045177045
195,1.74002442002442
196,1.7512576312576311
197,1.7411477411477412
198,1.7624908424908423
199,1.75013431013431
200,1.757997557997558
201,1.7478876678876678
202,1.75013431013431
203,1.72991452991453
204,1.7074481074481074
205,1.7366544566544566
206,1.7928205128205128
207,1.7726007326007327
208,1.710818070818071
209,1.713064713064713
210,1.757997557997558
211,1.7804639804639804
212,1.796190476190476
213,1.7860805860805862
214,1.7916971916971918
215,1.795067155067155
216,1.7995604395604397
217,1.795067155067155
218,1.7860805860805862
219,1.7973137973137974
220,1.7883272283272282
221,1.7916971916971918
222,1.7647374847374848
223,1.7703540903540904
224,1.7546275946275949
225,1.7726007326007327
226,1.7703540903540904
227,1.7523809523809524
228,1.749010989010989
229,1.7602442002442005
230,1.7591208791208792
231,1.777094017094017
232,1.8186568986568987
233,1.86021978021978
234,1.883809523809524
235,1.8826862026862028
236,1.893919413919414
237,1.869206349206349
238,1.855726495726496
239,1.827643467643468
240,1.8265201465201464
241,1.7860805860805862
242,1.7591208791208792
243,1.7669841269841269
244,1.7613675213675213
245,1.7726007326007327
246,1.7602442002442005
247,1.7613675213675213
248,1.7591208791208792
249,1.738901098901099
250,1.6894749694749696
251,1.7265445665445665
252,1.927619047619048
253,2.417387057387057
254,3.0127472527472525
255,3.318290598290598
256,3.144175824175824
257,2.7184371184371185
258,2.265738705738706
259,1.9444688644688648
260,1.7737240537240535
261,1.6995848595848595
262,1.6512820512820512
263,1.6220757020757022
264,1.5894993894993894
265,1.5591697191697191
266,1.522100122100122
267,1.5052503052503052
268,1.5164835164835164
269,1.5625396825396825
270,1.5838827838827838
271,1.6175824175824176
272,1.6175824175824176
273,1.6085958485958487
274,1.5906227106227109
275,1.5951159951159952
276,1.5692796092796093
277,1.546813186813187
278,1.5243467643467643
279,1.593992673992674
280,1.631062271062271
281,1.631062271062271
282,1.6220757020757022
283,1.6052258852258852
284,1.6108424908424908
285,1.5996092796092796
286,1.6052258852258852
287,1.5973626373626373
288,1.6018559218559218
289,1.6220757020757022
290,1.61982905982906
291,1.6344322344322344
292,1.632185592185592
293,1.6333089133089134
294,1.6557753357753358
295,1.6512820512820512
296,1.665885225885226
297,1.6816117216117217
298,1.6827350427350427
299,1.6905982905982906
300,1.705201465201465
301,1.7366544566544566
302,1.7456410256410255
303,1.7748473748473748
304,1.775970695970696
305,1.7804639804639804
306,1.779340659340659
307,1.7591208791208792
308,1.7636141636141636
309,1.756874236874237
310,1.7366544566544566
311,1.7074481074481074
312,1.704078144078144
313,1.705201465201465
314,1.6984615384615385
315,1.6995848595848595
316,1.6872283272283273
317,1.6883516483516483
318,1.6883516483516483
319,1.705201465201465
320,1.7085714285714286
321,1.6984615384615385
322,1.710818070818071
323,1.702954822954823
324,1.693968253968254
325,1.6950915750915752
326,1.702954822954823
327,1.6905982905982906
328,1.6928449328449329
329,1.6793650793650794
330,1.6692551892551892
331,1.667008547008547
332,1.6748717948717948
333,1.6737484737484738
334,1.6613919413919414
335,1.6737484737484738
336,1.6715018315018315
337,1.6917216117216116
338,1.6748717948717948
339,1.6726251526251523
340,1.6917216117216116
341,1.684981684981685
342,1.6905982905982906
343,1.6995848595848595
344,1.6973382173382174
345,1.6984615384615385
346,1.704078144078144
347,1.693968253968254
348,1.6692551892551892
349,1.6625152625152626
350,1.6456654456654456
351,1.6726251526251523
352,1.6883516483516483
353,1.7198046398046398
354,1.713064713064713
355,1.72991452991453
356,1.722051282051282
357,1.7209279609279609
358,1.6973382173382174
359,1.6748717948717948
360,1.6546520146520147
361,1.6703785103785105
362,1.6625152625152626
363,1.6692551892551892
364,1.6681318681318682
365,1.659145299145299
366,1.6748717948717948
367,1.6995848595848595
368,1.6995848595848595
369,1.686105006105006
370,1.6995848595848595
371,1.7175579975579975
372,1.710818070818071
373,1.7085714285714286
374,1.7467643467643468
375,1.7995604395604397
376,1.8265201465201464
377,1.85010989010989
378,1.8355067155067155
379,1.8242735042735043
380,1.8175335775335772
381,1.7928205128205128
382,1.7692307692307692
383,1.7366544566544566
384,1.7321611721611725
385,1.7175579975579975
386,1.7186813186813186
387,1.7141880341880342
388,1.713064713064713
389,1.7074481074481074
390,1.710818070818071
391,1.7153113553113553
392,1.7007081807081808
393,1.64004884004884
394,1.656898656898657
395,1.8714529914529916
396,2.3645909645909646
397,3.035213675213676
398,3.391306471306472
399,3.221684981684981
400,2.752136752136752
401,2.285958485958486
402,1.9163858363858364
403,1.7231746031746031
404,1.6647619047619049
405,1.6231990231990232
406,1.6052258852258852
407,1.5883760683760684
408,1.5726495726495726
409,1.5625396825396825
410,1.5715262515262516
411,1.568156288156288
412,1.5782661782661782
413,1.576019536019536
414,1.576019536019536
415,1.5816361416361415
416,1.5771428571428572
417,1.5906227106227109
418,1.592869352869353
419,1.5973626373626373
420,1.6029792429792429
421,1.61982905982906
422,1.6187057387057386
423,1.6254456654456657
424,1.631062271062271
425,1.6501587301587302
426,1.6411721611721612
427,1.636678876678877
428,1.6524053724053724
429,1.6737484737484738
430,1.6715018315018315
431,1.6827350427350427
432,1.693968253968254
433,1.7063247863247863
434,1.7141880341880342
435,1.7164346764346765
436,1.74002442002442
437,1.775970695970696
438,1.796190476190476
439,1.795067155067155
440,1.8186568986568987
441,1.831013431013431
442,1.86021978021978
443,1.881562881562881
444,1.874822954822955
445,1.8984126984126983
446,1.8871794871794871
447,1.8703296703296703
448,1.8444932844932844
449,1.8242735042735043
450,1.795067155067155
451,1.7703540903540904
452,1.7669841269841269
453,1.7546275946275949
454,1.7456410256410255
455,1.7186813186813186
456,1.7007081807081808
457,1.7096947496947497
458,1.7164346764346765
459,1.722051282051282
460,1.6995848595848595
461,1.7186813186813186
462,1.710818070818071
463,1.7198046398046398
464,1.7175579975579975
465,1.7141880341880342
466,1.705201465201465
467,1.6962148962148962
468,1.693968253968254
469,1.6962148962148962
470,1.7063247863247863
471,1.7141880341880342
472,1.711941391941392
473,1.7254212454212454
474,1.7164346764346765
475,1.7085714285714286
476,1.7018315018315018
477,1.6962148962148962
478,1.6973382173382174
479,1.7085714285714286
480,1.7164346764346765
481,1.7198046398046398
482,1.704078144078144
483,1.7063247863247863
484,1.713064713064713
485,1.7153113553113553
486,1.711941391941392
487,1.711941391941392
488,1.7242979242979244
489,1.7175579975579975
490,1.7209279609279609
491,1.7209279609279609
492,1.710818070818071
493,1.72991452991453
494,1.7355311355311356
495,1.7344078144078143
496,1.7276678876678877
497,1.72991452991453
498,1.7332844932844933
499,1.7344078144078143
500,1.7355311355311356
501,1.7624908424908423
502,1.7546275946275949
503,1.7535042735042734
504,1.7546275946275949
505,1.7658608058608058
506,1.768107448107448
507,1.7613675213675213
508,1.7478876678876678
509,1.7703540903540904
510,1.7714774114774114
511,1.779340659340659
512,1.7804639804639804
513,1.783833943833944
514,1.7602442002442005
515,1.7669841269841269
516,1.7827106227106226
517,1.7782173382173383
518,1.7939438339438338
519,1.8377533577533576
520,1.8658363858363856
521,1.8961660561660565
522,1.89953601953602
523,1.9006593406593408
524,1.891672771672772
525,1.904029304029304
526,1.891672771672772
527,1.8534798534798536
528,1.81978021978022
529,1.7939438339438338
530,1.7815873015873016
531,1.7827106227106226
532,1.7669841269841269
533,1.7692307692307692
534,1.775970695970696
535,1.779340659340659
536,1.7714774114774114
537,1.7636141636141636
538,1.7355311355311356
539,1.783833943833944
540,2.0174847374847373
541,2.5285958485958484
542,3.116092796092796
543,3.4564590964590964
544,3.316043956043956
545,2.861098901098901
546,2.307301587301587
547,1.9343589743589744
548,1.7422710622710622
549,1.667008547008547
550,1.631062271062271
551,1.5816361416361415
552,1.567032967032967
553,1.5423199023199023
554,1.54007326007326
555,1.520976800976801
556,1.4973870573870574
557,1.511990231990232
558,1.511990231990232
559,1.5164835164835164
560,1.5277167277167276
561,1.5097435897435898
562,1.5164835164835164
563,1.514236874236874
564,1.5333333333333334
565,1.5277167277167276
566,1.5524297924297925
567,1.558046398046398
568,1.5591697191697191
569,1.5625396825396825
570,1.5569230769230769
571,1.576019536019536
572,1.5917460317460317
573,1.6018559218559218
574,1.6029792429792429
575,1.61982905982906
576,1.6378021978021975
577,1.636678876678877
578,1.6602686202686203
579,1.656898656898657
580,1.6703785103785105
581,1.6883516483516483
582,1.710818070818071
583,1.7411477411477412
584,1.7467643467643468
585,1.7692307692307692
586,1.7905738705738703
587,1.7995604395604397
588,1.823150183150183
589,1.8366300366300363
590,1.8523565323565323
591,1.855726495726496
592,1.847863247863248
593,1.8253968253968251
594,1.7984371184371184
595,1.7939438339438338
596,1.7748473748473748
597,1.7467643467643468
598,1.7456410256410255
599,1.731037851037851
600,1.7422710622710622
601,1.7422710622710622
602,1.7209279609279609
603,1.7242979242979244
604,1.7063247863247863
605,1.705201465201465
606,1.7085714285714286
607,1.7018315018315018
608,1.702954822954823
609,1.6962148962148962
610,1.6894749694749696
611,1.683858363858364
612,1.6872283272283273
613,1.693968253968254
614,1.686105006105006
615,1.7007081807081808
616,1.6962148962148962
617,1.705201465201465
618,1.6917216117216116
619,1.6995848595848595
620,1.6917216117216116
621,1.6917216117216116
622,1.667008547008547
623,1.678241758241758
624,1.6681318681318682
625,1.665885225885226
626,1.6737484737484738
627,1.6647619047619049
628,1.6703785103785105
629,1.6827350427350427
630,1.675995115995116
631,1.6827350427350427
632,1.6726251526251523
633,1.6737484737484738
634,1.6434188034188033
635,1.6501587301587302
636,1.686105006105006
637,1.6737484737484738
638,1.693968253968254
639,1.7153113553113553
640,1.7164346764346765
641,1.6973382173382174
642,1.704078144078144
643,1.6883516483516483
644,1.6973382173382174
645,1.6950915750915752
646,1.683858363858364
647,1.683858363858364
648,1.6827350427350427
649,1.6984615384615385
650,1.7164346764346765
651,1.7198046398046398
652,1.7276678876678877
653,1.711941391941392
654,1.710818070818071
655,1.7254212454212454
656,1.7198046398046398
657,1.737777777777778
658,1.7186813186813186
659,1.7265445665445665
660,1.7096947496947497
661,1.7018315018315018
662,1.6793650793650794
663,1.6681318681318682
664,1.6535286935286937
665,1.675995115995116
666,1.7018315018315018
667,1.731037851037851
668,1.7995604395604397
669,1.8433699633699636
670,1.869206349206349
671,1.8804395604395605
672,1.883809523809524
673,1.866959706959707
674,1.8804395604395605
675,1.8894261294261292
676,1.8590964590964592
677,1.832136752136752
678,1.7984371184371184
679,1.7872039072039072
680,1.8107936507936508
681,1.804053724053724
682,1.800683760683761
683,1.7804639804639804
684,1.7703540903540904
685,1.775970695970696
686,1.7714774114774114
687,1.7198046398046398
688,1.779340659340659
689,2.03995115995116
690,2.5892551892551894
691,3.1812454212454213
692,3.4587057387057385
693,3.2463980463980464
694,2.777973137973138
695,2.279218559218559
696,1.9175091575091572
697,1.7321611721611725
698,1.6355555555555557
699,1.6164590964590964
700,1.586129426129426
701,1.567032967032967
702,1.5591697191697191
703,1.5636630036630037
704,1.538949938949939
705,1.5445665445665446
706,1.5456898656898657
707,1.54007326007326
708,1.549059829059829
709,1.549059829059829
710,1.549059829059829
711,1.5445665445665446
712,1.547936507936508
713,1.547936507936508
714,1.5501831501831502
715,1.5827594627594628
716,1.586129426129426
717,1.592869352869353
718,1.5973626373626373
719,1.5872527472527471
720,1.5996092796092796
721,1.604102564102564
722,1.6333089133089134
723,1.6411721611721612
724,1.631062271062271
725,1.6467887667887668
726,1.6434188034188033
727,1.6557753357753358
728,1.6602686202686203
729,1.6557753357753358
730,1.6703785103785105
731,1.677118437118437
732,1.6894749694749696
733,1.7018315018315018
734,1.7265445665445665
735,1.7535042735042734
736,1.7624908424908423
737,1.7726007326007327
738,1.802930402930403
739,1.8096703296703296
740,1.8051770451770448
741,1.7939438339438338
742,1.7939438339438338
743,1.784957264957265
744,1.7411477411477412
745,1.7254212454212454
746,1.7186813186813186
747,1.6917216117216116
748,1.6950915750915752
749,1.7186813186813186
750,1.7018315018315018
751,1.7096947496947497
752,1.7063247863247863
753,1.7198046398046398
754,1.7153113553113553
755,1.722051282051282
756,1.7344078144078143
757,1.7254212454212454
758,1.7153113553113553
759,1.7186813186813186
760,1.713064713064713
761,1.7242979242979244
762,1.722051282051282
763,1.7153113553113553
764,1.7198046398046398
765,1.7242979242979244
766,1.7523809523809524
767,1.7456410256410255
768,1.7658608058608058
769,1.7636141636141636
770,1.7613675213675213
771,1.7714774114774114
772,1.7669841269841269
773,1.7714774114774114
774,1.7602442002442005
775,1.768107448107448
776,1.7804639804639804
777,1.7714774114774114
778,1.7624908424908423
779,1.7726007326007327
780,1.7613675213675213
781,1.7726007326007327
782,1.768107448107448
783,1.777094017094017
784,1.7714774114774114
785,1.7557509157509157
786,1.757997557997558
787,1.7557509157509157
788,1.756874236874237
789,1.7636141636141636
790,1.7726007326007327
791,1.7714774114774114
792,1.7546275946275949
793,1.7535042735042734
794,1.7636141636141636
795,1.7737240537240535
796,1.7827106227106226
797,1.7726007326007327
798,1.7703540903540904
799,1.7726007326007327
800,1.779340659340659
801,1.7636141636141636
802,1.7714774114774114
803,1.7636141636141636
804,1.7703540903540904
805,1.756874236874237
806,1.757997557997558
807,1.7748473748473748
808,1.7703540903540904
809,1.7737240537240535
810,1.7557509157509157
811,1.7512576312576311
812,1.7321611721611725
813,1.7445177045177045
814,1.7602442002442005
815,1.7658608058608058
816,1.7815873015873016
817,1.8287667887667889
818,1.857973137973138
819,1.8658363858363856
820,1.8714529914529916
821,1.8804395604395605
822,1.866959706959707
823,1.8546031746031744
824,1.8377533577533576
825,1.820903540903541
826,1.7939438339438338
827,1.768107448107448
828,1.7433943833943837
829,1.7546275946275949
830,1.75013431013431
831,1.7366544566544566
832,1.7153113553113553
833,1.7321611721611725
834,1.7445177045177045
835,1.7366544566544566
836,1.704078144078144
837,1.7916971916971918
838,2.1073504273504278
839,2.691477411477412
840,3.2463980463980464
841,3.4935286935286936
842,3.2385347985347988
843,2.751013431013431
844,2.212942612942613
845,1.8883028083028084
846,1.7164346764346765
847,1.6378021978021975
848,1.5782661782661782
849,1.558046398046398
850,1.5288400488400489
851,1.5434432234432234
852,1.5524297924297925
853,1.547936507936508
854,1.5501831501831502
855,1.5569230769230769
856,1.5557997557997558
857,1.5524297924297925
858,1.5569230769230769
859,1.5501831501831502
860,1.5602930402930404
861,1.568156288156288
862,1.5715262515262516
863,1.5793894993894997
864,1.5726495726495726
865,1.5805128205128205
866,1.592869352869353
867,1.592869352869353
868,1.593992673992674
869,1.611965811965812
870,1.61982905982906
871,1.631062271062271
872,1.6333089133089134
873,1.6276923076923078
874,1.632185592185592
875,1.6546520146520147
876,1.667008547008547
877,1.6883516483516483
878,1.6804884004884004
879,1.6962148962148962
880,1.705201465201465
881,1.711941391941392
882,1.7175579975579975
883,1.7332844932844933
884,1.749010989010989
885,1.7737240537240535
886,1.783833943833944
887,1.8164102564102564
888,1.8287667887667889
889,1.8141636141636144
890,1.8085470085470088
891,1.783833943833944
892,1.775970695970696
893,1.7422710622710622
894,1.7198046398046398
895,1.711941391941392
896,1.6928449328449329
897,1.693968253968254
898,1.6748717948717948
899,1.6647619047619049
900,1.659145299145299
901,1.6557753357753358
902,1.6602686202686203
903,1.6602686202686203
904,1.647912087912088
905,1.6602686202686203
906,1.6557753357753358
907,1.6501587301587302
908,1.658021978021978
909,1.665885225885226
910,1.6535286935286937
911,1.6681318681318682
912,1.6625152625152626
913,1.6737484737484738
914,1.677118437118437
915,1.675995115995116
916,1.6917216117216116
917,1.704078144078144
918,1.6984615384615385
919,1.7074481074481074
920,1.6962148962148962
921,1.705201465201465
922,1.7018315018315018
923,1.710818070818071
924,1.7366544566544566
925,1.7254212454212454
926,1.7242979242979244
927,1.7276678876678877
928,1.7366544566544566
929,1.7557509157509157
930,1.7512576312576311
931,1.7658608058608058
932,1.7535042735042734
933,1.7658608058608058
934,1.7523809523809524
935,1.7433943833943837
936,1.7433943833943837
937,1.72991452991453
938,1.7265445665445665
939,1.722051282051282
940,1.731037851037851
941,1.731037851037851
942,1.7445177045177045
943,1.7512576312576311
944,1.749010989010989
945,1.749010989010989
946,1.7535042735042734
947,1.7624908424908423
948,1.7748473748473748
949,1.7647374847374848
950,1.7624908424908423
951,1.7164346764346765
952,1.6647619047619049
953,1.6187057387057386
954,1.6355555555555557
955,1.6726251526251523
956,1.693968253968254
957,1.6917216117216116
958,1.6973382173382174
959,1.6984615384615385
960,1.7063247863247863
961,1.7018315018315018
962,1.6995848595848595
963,1.7186813186813186
964,1.7478876678876678
965,1.738901098901099
966,1.7411477411477412
967,1.927619047619048
968,2.3724542124542123
969,2.9824175824175825
970,3.460952380952381
971,3.4744322344322343
972,3.108229548229548
973,2.566788766788767
974,2.075897435897436
975,1.8107936507936508
976,1.6816117216117217
977,1.6231990231990232
978,1.6097191697191695
979,1.5827594627594628
980,1.5883760683760684
981,1.576019536019536
982,1.5704029304029303
983,1.5591697191697191
984,1.5692796092796093
985,1.5816361416361415
986,1.576019536019536
987,1.5816361416361415
988,1.585006105006105
989,1.565909645909646
990,1.5793894993894997
991,1.5692796092796093
992,1.5602930402930404
993,1.5569230769230769
994,1.573772893772894
995,1.574896214896215
996,1.565909645909646
997,1.558046398046398
998,1.568156288156288
999,1.5704029304029303
1000,1.568156288156288
1001,1.5827594627594628
1002,1.5872527472527471
1003,1.61982905982906
1004,1.6276923076923078
1005,1.6647619047619049
1006,1.6703785103785105
1007,1.6636385836385836
1008,1.675995115995116
1009,1.6894749694749696
1010,1.74002442002442
1011,1.757997557997558
1012,1.777094017094017
1013,1.81978021978022
1014,1.831013431013431
1015,1.85010989010989
1016,1.847863247863248
1017,1.8635897435897435
1018,1.8444932844932844
1019,1.811916971916972
1020,1.7894505494505497
1021,1.7647374847374848
1022,1.74002442002442
1023,1.713064713064713
1024,1.7096947496947497
1025,1.6726251526251523
1026,1.6456654456654456
1027,1.631062271062271
1028,1.6299389499389498
1029,1.6175824175824176
1030,1.6018559218559218
1031,1.611965811965812
1032,1.6029792429792429
1033,1.6097191697191695
1034,1.6187057387057386
1035,1.613089133089133
1036,1.6097191697191695
1037,1.631062271062271
1038,1.6276923076923078
1039,1.6187057387057386
1040,1.615335775335775
1041,1.604102564102564
1042,1.6063492063492064
1043,1.613089133089133
1044,1.6063492063492064
1045,1.611965811965812
1046,1.6299389499389498
1047,1.6231990231990232
1048,1.6299389499389498
1049,1.61982905982906
1050,1.6254456654456657
1051,1.631062271062271
1052,1.6288156288156288
1053,1.620952380952381
1054,1.6378021978021975
1055,1.6254456654456657
1056,1.6333089133089134
1057,1.6018559218559218
1058,1.5917460317460317
1059,1.6220757020757022
1060,1.6501587301587302
1061,1.6905982905982906
1062,1.6905982905982906
1063,1.702954822954823
1064,1.7231746031746031
1065,1.74002442002442
1066,1.749010989010989
1067,1.74002442002442
1068,1.7422710622710622
1069,1.7512576312576311
1070,1.7602442002442005
1071,1.7602442002442005
1072,1.7647374847374848
1073,1.7624908424908423
1074,1.7815873015873016
1075,1.7782173382173383
1076,1.7804639804639804
1077,1.7613675213675213
1078,1.756874236874237
1079,1.7804639804639804
1080,1.811916971916972
1081,1.8152869352869352
1082,1.8265201465201464
1083,1.827643467643468
1084,1.823150183150183
1085,1.82989010989011
1086,1.8444932844932844
1087,1.841123321123321
1088,1.827643467643468
1089,1.8265201465201464
1090,1.8085470085470088
1091,1.7984371184371184
1092,1.802930402930403
1093,1.7995604395604397
1094,1.8141636141636144
1095,1.804053724053724
1096,1.8107936507936508
1097,1.820903540903541
1098,1.8107936507936508
1099,1.8253968253968251
1100,1.8366300366300363
1101,1.8253968253968251
1102,1.823150183150183
1103,1.813040293040293
1104,1.811916971916972
1105,1.820903540903541
1106,1.804053724053724
1107,1.800683760683761
1108,1.7939438339438338
1109,1.804053724053724
1110,1.7984371184371184
1111,1.7894505494505497
1112,1.800683760683761
1113,1.796190476190476
1114,1.802930402930403
1115,1.7984371184371184
1116,1.7894505494505497
1117,1.7916971916971918
1118,1.796190476190476
1119,1.802930402930403
1120,1.8242735042735043
1121,1.8590964590964592
1122,1.8972893772893773
1123,1.9186324786324789
1124,1.9163858363858364
1125,1.9006593406593408
1126,1.8781929181929184
1127,1.8456166056166057
1128,1.823150183150183
1129,1.7973137973137974
1130,1.7872039072039072
1131,1.800683760683761
1132,1.802930402930403
1133,1.784957264957265
1134,1.7726007326007327
1135,1.7647374847374848
1136,1.7636141636141636
1137,1.777094017094017
1138,1.775970695970696
1139,1.7456410256410255
1140,1.7445177045177045
1141,1.8984126984126983
1142,2.3567277167277165
1143,2.9947741147741147
1144,3.43960927960928
1145,3.4025396825396825
1146,2.981294261294261
1147,2.4724297924297924
1148,2.0624175824175826
1149,1.8164102564102564
1150,1.6962148962148962
1151,1.6557753357753358
1152,1.6142124542124543
1153,1.6029792429792429
1154,1.5951159951159952
1155,1.5782661782661782
1156,1.5692796092796093
1157,1.568156288156288
1158,1.547936507936508
1159,1.5423199023199023
1160,1.5692796092796093
1161,1.5883760683760684
1162,1.592869352869353
1163,1.5894993894993894
1164,1.5906227106227109
1165,1.593992673992674
1166,1.6007326007326008
1167,1.592869352869353
1168,1.5996092796092796
1169,1.5962393162393165
1170,1.593992673992674
1171,1.6029792429792429
1172,1.6085958485958487
1173,1.6344322344322344
1174,1.6467887667887668
1175,1.6467887667887668
1176,1.6546520146520147
1177,1.6625152625152626
1178,1.686105006105006
1179,1.6962148962148962
1180,1.7265445665445665
1181,1.731037851037851
1182,1.7332844932844933
1183,1.7523809523809524
1184,1.7512576312576311
1185,1.757997557997558
1186,1.738901098901099
1187,1.749010989010989
1188,1.7366544566544566
1189,1.7546275946275949
1190,1.7782173382173383
1191,1.827643467643468
1192,1.869206349206349
1193,1.904029304029304
1194,1.8894261294261292
1195,1.8905494505494504
1196,1.869206349206349
1197,1.8467399267399267
1198,1.823150183150183
1199,1.8096703296703296
1200,1.8051770451770448
1201,1.7860805860805862
1202,1.7883272283272282
1203,1.775970695970696
1204,1.7613675213675213
1205,1.702954822954823
1206,1.6378021978021975
1207,1.615335775335775
1208,1.6220757020757022
1209,1.683858363858364
1210,1.72991452991453
1211,1.7411477411477412
1212,1.74002442002442
1213,1.7332844932844933
1214,1.7254212454212454
1215,1.7175579975579975
1216,1.7175579975579975
1217,1.713064713064713
1218,1.7254212454212454
1219,1.7198046398046398
1220,1.7355311355311356
1221,1.7546275946275949
1222,1.7591208791208792
1223,1.7613675213675213
1224,1.7726007326007327
1225,1.8366300366300363
1226,1.993894993894994
1227,2.1051037851037853
1228,1.952332112332112
1229,1.656898656898657
1230,1.4187545787545788
1231,1.2356532356532357
1232,1.101978021978022
1233,0.9862759462759464
1234,0.9514529914529914
1235,0.8952869352869353
1236,0.9548229548229548
1237,1.1581440781440782
1238,1.4356043956043956
1239,1.711941391941392
1240,1.855726495726496
1241,1.8894261294261292
1242,1.913015873015873
1243,1.9062759462759464
1244,1.9152625152625156
1245,1.9467155067155064
1246,1.9568253968253968
1247,1.9725518925518928
1248,1.96019536019536
1249,1.9714285714285715
1250,1.9736752136752136
1251,1.9714285714285715
1252,1.986031746031746
1253,2.0017582417582416
1254,1.9995115995115995
1255,2.021978021978022
1256,2.0275946275946275
1257,2.06017094017094
1258,2.0927472527472526
1259,2.125323565323565
1260,2.1354334554334558
1261,2.155653235653236
1262,2.179242979242979
1263,2.185982905982906
1264,2.241025641025641
1265,2.2634920634920634
1266,2.3185347985347984
1267,2.346617826617827
1268,2.3657142857142857
1269,2.3825641025641024
1270,2.3926739926739926
1271,2.4084004884004884
1272,2.4061538461538463
1273,2.347741147741148
1274,2.2893284493284494
1275,2.2106959706959706
1276,2.15003663003663
1277,2.0725274725274727
1278,1.9882783882783883
1279,1.895042735042735
1280,1.8332600732600728
1281,1.768107448107448
1282,1.7153113553113553
1283,1.6636385836385836
1284,1.6299389499389498
1285,1.592869352869353
1286,1.5984859584859583
1287,1.586129426129426
1288,1.586129426129426
1289,1.5782661782661782
1290,1.5704029304029303
1291,1.5546764346764346
1292,1.5513064713064713
1293,1.5557997557997558
1294,1.576019536019536
1295,1.574896214896215
1296,1.5838827838827838
1297,1.592869352869353
1298,1.5894993894993894
1299,1.586129426129426
1300,1.5962393162393165
1301,1.615335775335775
1302,1.6254456654456657
1303,1.6108424908424908
1304,1.6231990231990232
1305,1.647912087912088
1306,1.64004884004884
1307,1.659145299145299
1308,1.6512820512820512
1309,1.6512820512820512
1310,1.6625152625152626
1311,1.64004884004884
1312,1.6276923076923078
1313,1.6164590964590964
1314,1.6299389499389498
1315,1.620952380952381
1316,1.64004884004884
1317,1.6411721611721612
1318,1.6512820512820512
1319,1.6703785103785105
1320,1.656898656898657
1321,1.658021978021978
1322,1.658021978021978
1323,1.638925518925519
1324,1.6231990231990232
1325,1.6142124542124543
1326,1.6142124542124543
1327,1.61982905982906
1328,1.636678876678877
1329,1.6265689865689863
1330,1.6288156288156288
1331,1.6467887667887668
1332,1.6288156288156288
1333,1.6276923076923078
1334,1.636678876678877
1335,1.620952380952381
1336,1.6175824175824176
1337,1.6164590964590964
1338,1.6411721611721612
1339,1.6467887667887668
1340,1.6681318681318682
1341,1.658021978021978
1342,1.6467887667887668
1343,1.6422954822954825
1344,1.636678876678877
1345,1.638925518925519
1346,1.6231990231990232
1347,1.620952380952381
1348,1.6265689865689863
1349,1.6276923076923078
1350,1.61982905982906
1351,1.6254456654456657
1352,1.64004884004884
1353,1.6288156288156288
1354,1.6220757020757022
1355,1.613089133089133
1356,1.6254456654456657
1357,1.6445421245421246
1358,1.6288156288156288
1359,1.656898656898657
1360,1.6793650793650794
1361,1.6737484737484738
1362,1.6905982905982906
1363,1.7007081807081808
1364,1.711941391941392
1365,1.705201465201465
1366,1.7242979242979244
1367,1.7175579975579975
1368,1.713064713064713
1369,1.7153113553113553
1370,1.7074481074481074
1371,1.7096947496947497
1372,1.711941391941392
1373,1.7209279609279609
1374,1.7242979242979244
1375,1.7546275946275949
1376,1.7422710622710622
1377,1.7411477411477412
1378,1.7287912087912087
1379,1.7636141636141636
1380,1.7905738705738703
1381,1.779340659340659
1382,1.7894505494505497
1383,1.7827106227106226
1384,1.7748473748473748
1385,1.7647374847374848
1386,1.7422710622710622
1387,1.7366544566544566
1388,1.7535042735042734
1389,1.7827106227106226
1390,1.8152869352869352
1391,1.8433699633699636
1392,1.855726495726496
1393,1.8781929181929184
1394,1.883809523809524
1395,1.8714529914529916
1396,1.881562881562881
1397,1.8534798534798536
1398,1.827643467643468
1399,1.804053724053724
1400,1.7748473748473748
1401,1.768107448107448
1402,1.7726007326007327
1403,1.7726007326007327
1404,1.757997557997558
1405,1.7456410256410255
1406,1.7546275946275949
1407,1.7433943833943837
1408,1.7096947496947497
1409,1.7546275946275949
1410,1.9905250305250304
1411,2.5128693528693526
1412,3.123956043956044
1413,3.4587057387057385
1414,3.308180708180708
1415,2.858852258852259
1416,2.3398778998779
1417,1.9444688644688648
1418,1.775970695970696
1419,1.6827350427350427
1420,1.638925518925519
1421,1.6063492063492064
1422,1.586129426129426
1423,1.567032967032967
1424,1.5378266178266178
1425,1.5445665445665446
1426,1.5322100122100122
1427,1.5310866910866912
1428,1.547936507936508
1429,1.5277167277167276
1430,1.5288400488400489
1431,1.5254700854700856
1432,1.5355799755799755
1433,1.5367032967032968
1434,1.549059829059829
1435,1.5333333333333334
1436,1.538949938949939
1437,1.5445665445665446
1438,1.5524297924297925
1439,1.5456898656898657
1440,1.5524297924297925
1441,1.5569230769230769
1442,1.565909645909646
1443,1.5591697191697191
1444,1.5726495726495726
1445,1.5883760683760684
1446,1.5883760683760684
1447,1.5906227106227109
1448,1.5872527472527471
1449,1.5838827838827838
1450,1.5838827838827838
1451,1.6018559218559218
1452,1.6299389499389498
1453,1.6422954822954825
1454,1.6445421245421246
1455,1.656898656898657
1456,1.6512820512820512
1457,1.6602686202686203
1458,1.6703785103785105
1459,1.7074481074481074
1460,1.7141880341880342
1461,1.72991452991453
1462,1.7344078144078143
1463,1.738901098901099
1464,1.757997557997558
1465,1.7658608058608058
1466,1.757997557997558
1467,1.7557509157509157
1468,1.7332844932844933
1469,1.7321611721611725
1470,1.7164346764346765
1471,1.7074481074481074
1472,1.6973382173382174
1473,1.7153113553113553
1474,1.7164346764346765
1475,1.7141880341880342
1476,1.7063247863247863
1477,1.6973382173382174
1478,1.6715018315018315
1479,1.665885225885226
1480,1.656898656898657
1481,1.6602686202686203
1482,1.6827350427350427
1483,1.7085714285714286
1484,1.7085714285714286
1485,1.7007081807081808
1486,1.7074481074481074
1487,1.683858363858364
1488,1.684981684981685
1489,1.686105006105006
1490,1.6962148962148962
1491,1.704078144078144
1492,1.710818070818071
1493,1.7175579975579975
1494,1.7063247863247863
1495,1.7007081807081808
1496,1.6894749694749696
1497,1.6546520146520147
1498,1.6422954822954825
1499,1.620952380952381
1500,1.6557753357753358
1501,1.7198046398046398
1502,1.7523809523809524
1503,1.7703540903540904
1504,1.7624908424908423
1505,1.7591208791208792
1506,1.7366544566544566
1507,1.7254212454212454
1508,1.7366544566544566
1509,1.7591208791208792
1510,1.749010989010989
1511,1.749010989010989
1512,1.7433943833943837
1513,1.74002442002442
1514,1.7332844932844933
1515,1.7164346764346765
1516,1.7231746031746031
1517,1.7265445665445665
1518,1.7411477411477412
1519,1.7467643467643468
1520,1.7231746031746031
1521,1.7164346764346765
1522,1.7287912087912087
1523,1.72991452991453
1524,1.7366544566544566
1525,1.7175579975579975
1526,1.7355311355311356
1527,1.757997557997558
1528,1.7916971916971918
1529,1.7860805860805862
1530,1.783833943833944
1531,1.7973137973137974
1532,1.7804639804639804
1533,1.7512576312576311
1534,1.7624908424908423
1535,1.7928205128205128
1536,1.802930402930403
1537,1.82989010989011
1538,1.857973137973138
1539,1.9006593406593408
1540,1.9242490842490845
1541,1.941098901098901
1542,1.9366056166056167
1543,1.9332356532356527
1544,1.914139194139194
1545,1.895042735042735
1546,1.8568498168498169
1547,1.8467399267399267
1548,1.832136752136752
1549,1.7973137973137974
1550,1.7905738705738703
1551,1.7905738705738703
1552,1.7939438339438338
1553,1.7726007326007327
1554,1.7928205128205128
1555,1.8265201465201464
1556,1.8253968253968251
1557,1.7726007326007327
1558,1.8152869352869352
1559,2.068034188034188
1560,2.6184615384615384
1561,3.2194383394383395
1562,3.4744322344322343
1563,3.216068376068376
1564,2.731916971916972
1565,2.2545054945054943
1566,1.9377289377289375
1567,1.7973137973137974
1568,1.7085714285714286
1569,1.6737484737484738
1570,1.6052258852258852
1571,1.5793894993894997
1572,1.5569230769230769
1573,1.541196581196581
1574,1.5456898656898657
1575,1.5569230769230769
1576,1.573772893772894
1577,1.5591697191697191
1578,1.573772893772894
1579,1.5793894993894997
1580,1.5793894993894997
1581,1.568156288156288
1582,1.5602930402930404
1583,1.5524297924297925
1584,1.5557997557997558
1585,1.5546764346764346
1586,1.5513064713064713
1587,1.5546764346764346
1588,1.5726495726495726
1589,1.5973626373626373
1590,1.6108424908424908
1591,1.613089133089133
1592,1.6108424908424908
1593,1.6187057387057386
1594,1.6018559218559218
1595,1.6097191697191695
1596,1.6063492063492064
1597,1.6299389499389498
1598,1.6524053724053724
1599,1.6602686202686203
1600,1.665885225885226
1601,1.6703785103785105
1602,1.6726251526251523
1603,1.7186813186813186
1604,1.7411477411477412
1605,1.737777777777778
1606,1.7669841269841269
1607,1.802930402930403
1608,1.8186568986568987
1609,1.831013431013431
1610,1.847863247863248
1611,1.84
1612,1.823150183150183
1613,1.8085470085470088
1614,1.7815873015873016
1615,1.75013431013431
1616,1.7265445665445665
1617,1.749010989010989
1618,1.7242979242979244
1619,1.7153113553113553
1620,1.7096947496947497
1621,1.6917216117216116
1622,1.7141880341880342
1623,1.6962148962148962
1624,1.705201465201465
1625,1.7523809523809524
1626,1.768107448107448
1627,1.7714774114774114
1628,1.7714774114774114
1629,1.7445177045177045
1630,1.757997557997558
1631,1.7714774114774114
1632,1.7782173382173383
1633,1.7905738705738703
1634,1.7827106227106226
1635,1.7872039072039072
1636,1.8051770451770448
1637,1.7894505494505497
1638,1.7827106227106226
1639,1.7939438339438338
1640,1.7602442002442005
1641,1.7321611721611725
1642,1.7321611721611725
1643,1.7883272283272282
1644,1.832136752136752
1645,1.8613431013431012
1646,1.8377533577533576
1647,1.8456166056166057
1648,1.8253968253968251
1649,1.800683760683761
1650,1.777094017094017
1651,1.7703540903540904
1652,1.7018315018315018
1653,1.7074481074481074
1654,1.777094017094017
1655,1.8725763125763129
1656,1.8927960927960927
1657,1.8658363858363856
1658,1.8635897435897435
1659,1.9051526251526247
1660,1.8927960927960927
1661,1.9073992673992677
1662,1.96019536019536
1663,1.9512087912087912
1664,1.9309890109890109
1665,1.89953601953602
1666,1.857973137973138
1667,1.820903540903541
1668,1.7535042735042734
1669,1.7265445665445665
1670,1.6962148962148962
1671,1.636678876678877
1672,1.6490354090354091
1673,1.677118437118437
1674,1.647912087912088
1675,1.6265689865689863
1676,1.6231990231990232
1677,1.6535286935286937
1678,1.658021978021978
1679,1.5782661782661782
1680,1.6411721611721612
1681,1.7546275946275949
1682,1.7748473748473748
1683,1.7703540903540904
1684,1.7276678876678877
1685,1.6984615384615385
1686,1.686105006105006
1687,1.64004884004884
1688,1.6164590964590964
1689,1.6142124542124543
1690,1.6333089133089134
1691,1.6883516483516483
1692,1.7411477411477412
1693,1.7512576312576311
1694,1.784957264957265
1695,1.7692307692307692
1696,1.7782173382173383
1697,1.7613675213675213
1698,1.7546275946275949
1699,1.7366544566544566
1700,1.7164346764346765
1701,1.704078144078144
1702,1.6905982905982906
1703,1.677118437118437
1704,1.675995115995116
1705,1.704078144078144
1706,1.710818070818071
1707,1.693968253968254
1708,1.6625152625152626
1709,1.64004884004884
1710,1.6378021978021975
1711,1.7186813186813186
1712,1.991648351648352
1713,2.5005128205128204
1714,3.1486691086691088
1715,3.3295238095238093
1716,3.1531623931623933
1717,2.7285470085470087
1718,2.2488888888888887
1719,1.9197557997558
1720,1.7815873015873016
1721,1.686105006105006
1722,1.6288156288156288
1723,1.615335775335775
1724,1.6187057387057386
1725,1.638925518925519
1726,1.6254456654456657
1727,1.6254456654456657
1728,1.5827594627594628
1729,1.5883760683760684
1730,1.6276923076923078
1731,1.6613919413919414
1732,1.6602686202686203
1733,1.6524053724053724
1734,1.6501587301587302
1735,1.6625152625152626
1736,1.6647619047619049
1737,1.6726251526251523
1738,1.702954822954823
1739,1.7433943833943837
1740,1.7647374847374848
1741,1.7782173382173383
1742,1.8074236874236875
1743,1.784957264957265
1744,1.7456410256410255
1745,1.749010989010989
1746,1.7433943833943837
1747,1.775970695970696
1748,1.81978021978022
1749,1.7973137973137974
1750,1.8018070818070815
1751,1.795067155067155
1752,1.82989010989011
1753,1.895042735042735
1754,1.9186324786324789
1755,1.9175091575091572
1756,1.8647130647130647
1757,1.8590964590964592
1758,1.8871794871794871
1759,1.8984126984126983
1760,1.895042735042735
1761,1.881562881562881
1762,1.8568498168498169
1763,1.827643467643468
1764,1.8085470085470088
1765,1.8164102564102564
1766,1.7995604395604397
1767,1.768107448107448
1768,1.7445177045177045
1769,1.722051282051282
1770,1.6917216117216116
1771,1.659145299145299
1772,1.6512820512820512
1773,1.6613919413919414
1774,1.659145299145299
1775,1.6602686202686203
1776,1.6434188034188033
1777,1.6445421245421246
1778,1.631062271062271
1779,1.636678876678877
1780,1.64004884004884
1781,1.6378021978021975
1782,1.631062271062271
1783,1.6355555555555557
1784,1.6445421245421246
1785,1.6647619047619049
1786,1.6681318681318682
1787,1.6681318681318682
1788,1.6726251526251523
1789,1.6827350427350427
1790,1.6625152625152626
1791,1.6512820512820512
1792,1.6625152625152626
1793,1.6748717948717948
1794,1.678241758241758
1795,1.6703785103785105
1796,1.6512820512820512
1797,1.675995115995116
1798,1.6613919413919414
1799,1.665885225885226
1800,1.6625152625152626
1801,1.6816117216117217
1802,1.686105006105006
1803,1.6804884004884004
1804,1.659145299145299
1805,1.6602686202686203
1806,1.6647619047619049
1807,1.6535286935286937
1808,1.6613919413919414
1809,1.6524053724053724
1810,1.6501587301587302
1811,1.6636385836385836
1812,1.6737484737484738
1813,1.686105006105006
1814,1.677118437118437
1815,1.6816117216117217
1816,1.683858363858364
1817,1.684981684981685
1818,1.6625152625152626
1819,1.6535286935286937
1820,1.6535286935286937
1821,1.632185592185592
1822,1.613089133089133
1823,1.6288156288156288
1824,1.6602686202686203
1825,1.6681318681318682
1826,1.6703785103785105
1827,1.6984615384615385
1828,1.7153113553113553
1829,1.7164346764346765
1830,1.7276678876678877
1831,1.7287912087912087
1832,1.7321611721611725
1833,1.777094017094017
1834,1.8343833943833945
1835,1.8568498168498169
1836,1.8714529914529916
1837,1.8826862026862028
1838,1.904029304029304
1839,1.881562881562881
1840,1.8287667887667889
1841,1.81978021978022
1842,1.8287667887667889
1843,1.8366300366300363
1844,1.832136752136752
1845,1.81978021978022
1846,1.822026862026862
1847,1.8074236874236875
1848,1.8107936507936508
1849,1.7872039072039072
1850,1.8051770451770448
1851,1.7916971916971918
1852,1.738901098901099
1853,1.7591208791208792
1854,2.002881562881563
1855,2.5488156288156287
1856,3.17001221001221
1857,3.4946520146520146
1858,3.368840048840049
1859,2.9172649572649574
1860,2.405030525030525
1861,2.0084981684981686
1862,1.8265201465201464
1863,1.7231746031746031
1864,1.678241758241758
1865,1.6535286935286937
1866,1.6142124542124543
1867,1.6175824175824176
1868,1.620952380952381
1869,1.6175824175824176
1870,1.592869352869353
1871,1.5951159951159952
1872,1.585006105006105
1873,1.5996092796092796
1874,1.5996092796092796
1875,1.604102564102564
1876,1.5793894993894997
1877,1.576019536019536
1878,1.6007326007326008
1879,1.6276923076923078
1880,1.61982905982906
1881,1.6220757020757022
1882,1.6333089133089134
1883,1.6467887667887668
1884,1.6378021978021975
1885,1.6467887667887668
1886,1.6456654456654456
1887,1.656898656898657
1888,1.6411721611721612
1889,1.6467887667887668
1890,1.659145299145299
1891,1.6535286935286937
1892,1.6636385836385836
1893,1.6557753357753358
1894,1.667008547008547
1895,1.6715018315018315
1896,1.6905982905982906
1897,1.7096947496947497
1898,1.705201465201465
1899,1.731037851037851
1900,1.7411477411477412
1901,1.749010989010989
1902,1.7703540903540904
1903,1.779340659340659
1904,1.783833943833944
1905,1.777094017094017
1906,1.7658608058608058
1907,1.749010989010989
1908,1.7265445665445665
1909,1.6984615384615385
1910,1.683858363858364
1911,1.6636385836385836
1912,1.6602686202686203
1913,1.638925518925519
1914,1.6456654456654456
1915,1.6288156288156288
1916,1.61982905982906
1917,1.61982905982906
1918,1.6231990231990232
1919,1.64004884004884
1920,1.6456654456654456
1921,1.6535286935286937
1922,1.6501587301587302
1923,1.6613919413919414
1924,1.658021978021978
1925,1.6490354090354091
1926,1.6378021978021975
1927,1.6445421245421246
1928,1.6467887667887668
1929,1.6535286935286937
1930,1.6524053724053724
1931,1.678241758241758
1932,1.6804884004884004
1933,1.6917216117216116
1934,1.6950915750915752
1935,1.693968253968254
1936,1.7074481074481074
1937,1.7153113553113553
1938,1.705201465201465
1939,1.7141880341880342
1940,1.722051282051282
1941,1.7209279609279609
1942,1.7254212454212454
1943,1.7276678876678877
1944,1.749010989010989
1945,1.737777777777778
1946,1.75013431013431
1947,1.7445177045177045
1948,1.7647374847374848
1949,1.7647374847374848
1950,1.7748473748473748
1951,1.7658608058608058
1952,1.7602442002442005
1953,1.7658608058608058
1954,1.7624908424908423
1955,1.7546275946275949
1956,1.749010989010989
1957,1.75013431013431
1958,1.7355311355311356
1959,1.7355311355311356
1960,1.7411477411477412
1961,1.7467643467643468
1962,1.72991452991453
1963,1.738901098901099
1964,1.7366544566544566
1965,1.7242979242979244
1966,1.7287912087912087
1967,1.7332844932844933
1968,1.7321611721611725
1969,1.749010989010989
1970,1.74002442002442
1971,1.72991452991453
1972,1.710818070818071
1973,1.711941391941392
1974,1.7153113553113553
1975,1.7456410256410255
1976,1.7445177045177045
1977,1.731037851037851
1978,1.74002442002442
1979,1.74002442002442
1980,1.72991452991453
1981,1.7478876678876678
1982,1.7916971916971918
1983,1.82989010989011
1984,1.8456166056166057
1985,1.841123321123321
1986,1.8523565323565323
1987,1.82989010989011
1988,1.8141636141636144
1989,1.8085470085470088
1990,1.777094017094017
1991,1.7445177045177045
1992,1.7265445665445665
1993,1.7287912087912087
1994,1.731037851037851
1995,1.7276678876678877
1996,1.7242979242979244
1997,1.7074481074481074
1998,1.7332844932844933
1999,1.7478876678876678
