index,II
84,809
85,809
86,809
87,809
88,816
89,817
90,817
91,817
92,817
93,817
94,816
95,809
96,791
97,791
98,798
99,799
100,799
101,813
102,817
103,822
104,827
105,832
106,837
107,843
108,849
109,853
110,857
111,862
112,865
113,867
114,869
115,870
116,871
117,872
118,873
119,874
120,875
121,876
122,877
123,877
124,877
125,877
126,877
127,877
128,877
129,877
130,877
131,877
132,877
133,877
134,877
135,877
136,877
137,877
138,877
139,877
140,878
141,878
142,878
143,878
144,878
145,878
146,878
147,878
148,878
149,878
150,878
151,878
152,878
153,878
154,878
155,878
156,878
157,878
158,878
159,878
160,878
161,878
162,878
163,879
164,879
165,879
166,879
167,879
168,880
169,880
170,880
171,880
172,880
173,880
174,880
175,880
176,880
177,880
178,880
179,880
180,880
181,880
182,880
183,880
184,880
185,880
186,880
187,880
188,880
189,880
190,881
191,881
192,881
193,882
194,882
195,882
196,882
197,882
198,882
199,882
200,882
201,882
202,882
203,882
204,882
205,883
206,883
207,883
208,884
209,884
210,883
211,883
212,882
213,882
214,882
215,881
216,881
217,881
218,880
219,880
220,880
221,879
222,879
223,878
224,878
225,878
226,877
227,877
228,877
229,876
230,876
231,876
232,875
233,875
234,874
235,874
236,873
237,873
238,872
239,871
240,871
241,870
242,870
243,869
244,869
245,868
246,868
247,868
248,868
249,868
250,868
251,867
252,867
253,867
254,867
255,867
256,867
257,868
258,868
259,868
260,869
261,869
262,870
263,870
264,870
265,871
266,871
267,872
268,872
269,872
270,873
271,873
272,873
273,874
274,874
275,874
276,875
277,875
278,876
279,876
280,876
281,877
282,877
283,877
284,877
285,877
286,877
287,877
288,878
289,878
290,878
291,878
292,878
293,878
294,878
295,878
296,878
297,877
298,877
299,877
300,878
301,878
302,878
303,878
304,878
305,878
306,878
307,878
308,878
309,878
310,878
311,878
312,877
313,877
314,877
315,877
316,877
317,877
318,877
319,877
320,877
321,877
322,876
323,876
324,877
325,877
326,877
327,877
328,876
329,876
330,876
331,876
332,877
333,877
334,877
335,877
336,877
337,877
338,877
339,877
340,877
341,877
342,877
343,877
344,877
345,877
346,877
347,877
348,877
349,877
350,877
351,877
352,877
353,877
354,878
355,878
356,878
357,878
358,878
359,878
360,878
361,878
362,878
363,878
364,878
365,878
366,878
367,878
368,878
369,878
370,878
371,878
372,878
373,878
374,878
375,878
376,879
377,879
378,879
379,879
380,879
381,879
382,879
383,879
384,879
385,879
386,879
387,879
388,879
389,879
390,879
391,879
392,879
393,879
394,879
395,879
396,879
397,879
398,879
399,879
400,879
401,879
402,879
403,879
404,879
405,879
406,879
407,879
408,879
409,879
410,879
411,879
412,879
413,878
414,878
415,878
416,878
417,878
418,878
419,878
420,878
421,878
422,878
423,878
424,878
425,878
426,878
427,878
428,878
429,877
430,877
431,877
432,877
433,877
434,877
435,877
436,877
437,877
438,877
439,878
440,878
441,878
442,878
443,878
444,878
445,878
446,878
447,878
448,878
449,878
450,879
451,879
452,879
453,880
454,880
455,880
456,880
457,880
458,880
459,880
460,880
461,880
462,880
463,880
464,880
465,881
466,881
467,882
468,881
469,881
470,881
471,881
472,881
473,881
474,881
475,881
476,881
477,881
478,881
479,881
480,881
481,881
482,880
483,880
484,880
485,880
486,879
487,879
488,879
489,879
490,879
491,879
492,879
493,879
494,879
495,878
496,878
497,878
498,878
499,878
500,877
501,877
502,877
503,877
504,877
505,877
506,876
507,876
508,876
509,876
510,876
511,876
512,875
513,875
514,875
515,875
516,875
517,875
518,876
519,876
520,876
521,876
522,876
523,876
524,876
525,876
526,876
527,876
528,876
529,876
530,876
531,877
532,877
533,877
534,877
535,877
536,877
537,877
538,877
539,877
540,878
541,878
542,879
543,880
544,882
545,884
546,886
547,890
548,893
549,897
550,901
551,904
552,908
553,912
554,917
555,921
556,928
557,934
558,940
559,947
560,954
561,961
562,967
563,970
564,974
565,975
566,972
567,971
568,969
569,967
570,970
571,972
572,973
573,971
574,969
575,964
576,953
577,949
578,946
579,942
580,939
581,937
582,938
583,942
584,946
585,949
586,951
587,940
588,923
589,906
590,887
591,868
592,858
593,860
594,862
595,865
596,867
597,869
598,870
599,871
600,872
601,872
602,872
603,872
604,872
605,872
606,872
607,872
608,872
609,872
610,872
611,872
612,872
613,873
614,874
615,874
616,874
617,874
618,875
619,875
620,875
621,875
622,875
623,875
624,875
625,875
626,876
627,876
628,876
629,876
630,876
631,876
632,876
633,876
634,876
635,876
636,876
637,876
638,876
639,876
640,876
641,876
642,876
643,876
644,876
645,876
646,877
647,877
648,877
649,877
650,877
651,877
652,877
653,877
654,877
655,877
656,877
657,877
658,877
659,877
660,878
661,878
662,878
663,878
664,878
665,878
666,878
667,878
668,878
669,878
670,878
671,878
672,878
673,879
674,879
675,879
676,879
677,879
678,879
679,879
680,879
681,879
682,879
683,879
684,879
685,879
686,879
687,879
688,879
689,879
690,879
691,879
692,879
693,879
694,879
695,879
696,879
697,879
698,879
699,879
700,878
701,877
702,877
703,877
704,877
705,876
706,876
707,876
708,876
709,875
710,875
711,874
712,874
713,873
714,870
715,869
716,869
717,869
718,869
719,869
720,869
721,869
722,869
723,869
724,869
725,869
726,869
727,867
728,867
729,866
730,866
731,866
732,865
733,865
734,865
735,865
736,865
737,865
738,865
739,865
740,865
741,865
742,866
743,866
744,866
745,867
746,867
747,867
748,868
749,868
750,868
751,869
752,869
753,869
754,870
755,870
756,870
757,871
758,871
759,871
760,872
761,872
762,872
763,873
764,873
765,873
766,874
767,874
768,874
769,874
770,874
771,874
772,874
773,874
774,874
775,874
776,874
777,874
778,874
779,874
780,874
781,874
782,874
783,874
784,874
785,874
786,874
787,874
788,874
789,874
790,874
791,874
792,874
793,874
794,874
795,873
796,873
797,872
798,872
799,872
800,872
801,872
802,872
803,873
804,873
805,873
806,873
807,873
808,873
809,873
810,873
811,873
812,873
813,873
814,873
815,873
816,873
817,873
818,873
819,873
820,873
821,873
822,873
823,873
824,873
825,873
826,873
827,873
828,873
829,873
830,873
831,873
832,873
833,873
834,874
835,874
836,874
837,875
838,875
839,875
840,875
841,875
842,875
843,875
844,875
845,875
846,875
847,875
848,875
849,875
850,875
851,875
852,875
853,875
854,875
855,875
856,875
857,875
858,875
859,875
860,875
861,875
862,875
863,875
864,875
865,875
866,875
867,875
868,875
869,875
870,875
871,875
872,875
873,875
874,875
875,875
876,875
877,875
878,875
879,875
880,875
881,875
882,875
883,875
884,875
885,875
886,875
887,875
888,875
889,875
890,875
891,875
892,875
893,875
894,875
895,875
896,875
897,875
898,875
899,875
900,875
901,875
902,875
903,875
904,875
905,875
906,876
907,876
908,876
909,876
910,876
911,876
912,876
913,876
914,876
915,876
916,876
917,876
918,876
919,876
920,876
921,876
922,876
923,876
924,876
925,876
926,876
927,876
928,876
929,876
930,876
931,876
932,876
933,876
934,876
935,876
936,876
937,876
938,876
939,876
940,876
941,876
942,876
943,876
944,876
945,876
946,876
947,876
948,876
949,876
950,876
951,876
952,876
953,876
954,876
955,876
956,877
957,877
958,877
959,877
960,878
961,878
962,878
963,878
964,878
965,878
966,878
967,878
968,878
969,878
970,878
971,878
972,878
973,878
974,878
975,791
976,784
977,783
978,783
979,783
980,633
981,556
982,554
983,548
984,405
985,405
986,405
987,405
988,405
989,405
990,405
991,405
992,405
993,405
994,158
995,165
996,170
997,178
998,185
999,190
1000,194
1001,214
1002,218
1003,223
1004,231
1005,239
1006,243
1007,243
1008,238
1009,231
1010,222
1011,214
1012,202
1013,191
1014,180
1015,360
1016,343
1017,328
1018,330
1019,333
1020,336
1021,338
1022,339
1023,339
1024,338
1025,337
1026,335
1027,333
1028,346
1029,359
1030,375
1031,388
1032,575
1033,576
1034,577
1035,578
1036,579
1037,580
1038,580
1039,578
1040,576
1041,573
1042,571
1043,569
1044,571
1045,573
1046,578
1047,583
1048,588
1049,592
1050,597
1051,602
1052,606
1053,609
1054,613
1055,615
1056,617
1057,619
1058,621
1059,622
1060,623
1061,623
1062,624
1063,624
1064,624
1065,625
1066,625
1067,625
1068,626
1069,783
1070,783
1071,783
1072,783
1073,783
1074,784
1075,788
1076,788
1077,788
1078,895
1079,879
1080,936
1081,1027
1082,1041
1083,1270
1084,1285
1085,1418
1086,1580
1087,2588
1088,2598
1089,2609
1090,2621
1091,2631
1092,2641
1093,2650
1094,2657
1095,2662
1096,2490
1097,2490
1098,2490
1099,2484
1100,2483
1101,2482
1102,2482
1103,2336
1104,2256
1105,2255
1106,2248
1107,2159
1108,2159
1109,2159
1110,2158
1111,2157
1112,2157
1113,2157
1114,2157
1115,2157
1116,1941
1117,1940
1118,1936
1119,1932
1120,1917
1121,1906
1122,1896
1123,1882
1124,1869
1125,1856
1126,1846
1127,1837
1128,1827
1129,1823
1130,1820
1131,1818
1132,1687
1133,1694
1134,1701
1135,1698
1136,1692
1137,1685
1138,1676
1139,1666
1140,1654
1141,1643
1142,1632
1143,1621
1144,1611
1145,1600
1146,1589
1147,1579
1148,1570
1149,1562
1150,1556
1151,1444
1152,1123
1153,874
1154,874
1155,874
1156,874
1157,875
1158,875
1159,875
1160,875
1161,875
1162,875
1163,875
1164,875
1165,875
1166,875
1167,875
1168,875
1169,876
1170,876
1171,876
1172,876
1173,876
1174,876
1175,876
1176,876
1177,876
1178,875
1179,875
1180,875
1181,875
1182,875
1183,875
1184,875
1185,875
1186,875
1187,875
1188,875
1189,874
1190,874
1191,874
1192,873
1193,872
1194,872
1195,871
1196,870
1197,870
1198,869
1199,868
1200,868
1201,867
1202,866
1203,866
1204,865
1205,864
1206,864
1207,863
1208,863
1209,862
1210,862
1211,862
1212,862
1213,862
1214,861
1215,861
1216,861
1217,861
1218,861
1219,861
1220,861
1221,861
1222,862
1223,862
1224,862
1225,862
1226,863
1227,863
1228,863
1229,864
1230,864
1231,865
1232,865
1233,865
1234,866
1235,866
1236,867
1237,867
1238,868
1239,868
1240,869
1241,869
1242,870
1243,871
1244,871
1245,872
1246,872
1247,872
1248,872
1249,872
1250,872
1251,872
1252,872
1253,872
1254,872
1255,872
1256,872
1257,872
1258,872
1259,872
1260,872
1261,872
1262,872
1263,873
1264,873
1265,873
1266,873
1267,873
1268,873
1269,873
1270,873
1271,872
1272,872
1273,872
1274,872
1275,872
1276,872
1277,872
1278,872
1279,872
1280,872
1281,872
1282,872
1283,872
1284,872
1285,872
1286,872
1287,872
1288,872
1289,872
1290,872
1291,872
1292,872
1293,872
1294,872
1295,872
1296,872
1297,872
1298,872
1299,872
1300,872
1301,872
1302,872
1303,872
1304,872
1305,872
1306,872
1307,872
1308,872
1309,872
1310,872
1311,872
1312,872
1313,872
1314,872
1315,872
1316,873
1317,873
1318,874
1319,874
1320,874
1321,874
1322,874
1323,874
1324,874
1325,874
1326,874
1327,874
1328,874
1329,874
1330,874
1331,874
1332,874
1333,874
1334,874
1335,874
1336,874
1337,874
1338,874
1339,874
1340,874
1341,874
1342,874
1343,874
1344,874
1345,874
1346,874
1347,874
1348,874
1349,874
1350,874
1351,874
1352,874
1353,874
1354,874
1355,874
1356,874
1357,874
1358,874
1359,874
1360,874
1361,874
1362,874
1363,874
1364,874
1365,874
1366,874
1367,874
1368,874
1369,874
1370,874
1371,874
1372,874
1373,874
1374,874
1375,874
1376,874
1377,874
1378,874
1379,874
1380,874
1381,874
1382,874
1383,874
1384,874
1385,874
1386,874
1387,874
1388,874
1389,874
1390,874
1391,874
1392,874
1393,874
1394,874
1395,874
1396,874
1397,874
1398,874
1399,874
1400,874
1401,874
1402,874
1403,874
1404,874
1405,874
1406,874
1407,874
1408,874
1409,874
1410,874
1411,874
1412,874
1413,874
1414,874
1415,874
1416,874
1417,875
1418,875
1419,875
1420,875
1421,875
1422,875
1423,875
1424,875
1425,875
1426,875
1427,875
1428,875
1429,875
1430,875
1431,875
1432,875
1433,875
1434,875
1435,875
1436,875
1437,875
1438,875
1439,875
1440,875
1441,875
1442,875
1443,875
1444,875
1445,875
1446,876
1447,876
1448,876
1449,876
1450,876
1451,877
1452,877
1453,877
1454,877
1455,877
1456,877
1457,877
1458,877
1459,877
1460,877
1461,878
1462,878
1463,878
1464,878
1465,878
1466,878
1467,879
1468,879
1469,879
1470,879
1471,879
1472,879
1473,879
1474,879
1475,879
1476,878
1477,878
1478,878
1479,878
1480,877
1481,877
1482,877
1483,877
1484,877
1485,877
1486,877
1487,877
1488,876
1489,876
1490,876
1491,876
1492,876
1493,876
1494,876
1495,875
1496,875
1497,874
1498,874
1499,874
1500,873
1501,639
1502,402
1503,175
1504,182
1505,190
1506,197
1507,205
1508,209
1509,213
1510,235
1511,237
1512,411
1513,412
1514,413
1515,415
1516,417
1517,420
1518,424
1519,427
1520,431
1521,436
1522,441
1523,446
1524,451
1525,456
1526,460
1527,465
1528,470
1529,475
1530,479
1531,483
1532,487
1533,488
1534,594
1535,607
1536,628
1537,649
1538,670
1539,682
1540,875
1541,876
1542,877
1543,878
1544,880
1545,883
1546,886
1547,890
1548,894
1549,898
1550,902
1551,905
1552,909
1553,914
1554,918
1555,923
1556,928
1557,1136
1558,1275
1559,1275
1560,1278
1561,1279
1562,1280
1563,1298
1564,1302
1565,1307
1566,1313
1567,1320
1568,1328
1569,1335
1570,1343
1571,1351
1572,1359
1573,1366
1574,1374
1575,1379
1576,1383
1577,1387
1578,1402
1579,1404
1580,1405
1581,1408
1582,1411
1583,1413
1584,1415
1585,1416
1586,1417
1587,1417
1588,1417
1589,1417
1590,1457
1591,1519
1592,1526
1593,1527
1594,1580
1595,1694
1596,1694
1597,1694
1598,1702
1599,1762
1600,1762
1601,1762
1602,1860
1603,1862
1604,1864
1605,1867
1606,1871
1607,1876
1608,1882
1609,1888
1610,1894
1611,1900
1612,1906
1613,1913
1614,1920
1615,1934
1616,1938
1617,1939
1618,1942
1619,1942
1620,1942
1621,1942
1622,1941
1623,1939
1624,1936
1625,1929
1626,1909
1627,1896
1628,1881
1629,1864
1630,1849
1631,1836
1632,1829
1633,1821
1634,1817
1635,1815
1636,1814
1637,1814
1638,1694
1639,1696
1640,1696
1641,1691
1642,1684
1643,1677
1644,1662
1645,1648
1646,1632
1647,1615
1648,1600
1649,1584
1650,1575
1651,1566
1652,1557
1653,1553
1654,1551
1655,1462
1656,1462
1657,1462
1658,1462
1659,1462
1660,1462
1661,1459
1662,1452
1663,1445
1664,1446
1665,1447
1666,1448
1667,1448
1668,1448
1669,1448
1670,1449
1671,1450
1672,1451
1673,1453
1674,1453
1675,1453
1676,1453
1677,1455
1678,1455
1679,1455
1680,1455
1681,1455
1682,1455
1683,1455
1684,1455
1685,1455
1686,1455
1687,1455
1688,1455
1689,1456
1690,1457
1691,1458
1692,1458
1693,1458
1694,1458
1695,1458
1696,1458
1697,1457
1698,1456
1699,1455
1700,1455
1701,1455
1702,1454
1703,1453
1704,1452
1705,1450
1706,1449
1707,1447
1708,1446
1709,1445
1710,1443
1711,1441
1712,1440
1713,1438
1714,1437
1715,1436
1716,1434
1717,1432
1718,1430
1719,1428
1720,1426
1721,1424
1722,1422
1723,1420
1724,1418
1725,1416
1726,1414
1727,1412
1728,1410
1729,1407
1730,1406
1731,1404
1732,1404
1733,1404
1734,1404
1735,1402
1736,1401
1737,1401
1738,1401
1739,1401
1740,1401
1741,1401
1742,1401
1743,1401
1744,1400
1745,1399
1746,1398
1747,1398
1748,1398
1749,1398
1750,1397
1751,1396
1752,1395
1753,1394
1754,1393
1755,1392
1756,1392
1757,1392
1758,1392
1759,1392
1760,1392
1761,1392
1762,1392
1763,1392
1764,1392
1765,1392
1766,1392
1767,1392
1768,1392
1769,1392
1770,1392
1771,1392
1772,1393
1773,1394
1774,1395
1775,1395
1776,1395
1777,1395
1778,1395
1779,1395
1780,1395
1781,1395
1782,1395
1783,1395
1784,1395
1785,1395
1786,1395
1787,1395
1788,1395
1789,1395
1790,1395
1791,1395
1792,1395
1793,1395
1794,1395
1795,1395
1796,1394
1797,1393
1798,1392
1799,1392
1800,1392
1801,1391
1802,1391
1803,1391
1804,1391
1805,1392
1806,1392
1807,1391
1808,1391
1809,1392
1810,1392
1811,1391
1812,1392
1813,1392
1814,1392
1815,1392
1816,1393
1817,1395
1818,1396
1819,1396
1820,1397
1821,1398
1822,1398
1823,1398
1824,1398
1825,1398
1826,1398
1827,1398
1828,1398
1829,1398
1830,1398
1831,1398
1832,1398
1833,1398
1834,1398
1835,1398
1836,1398
1837,1398
1838,1398
1839,1398
1840,1399
1841,1400
1842,1401
1843,1401
1844,1401
1845,1401
1846,1401
1847,1401
1848,1401
1849,1401
1850,1401
1851,1401
1852,1401
1853,1401
1854,1401
1855,1401
1856,1401
1857,1401
1858,1400
1859,1399
1860,1398
1861,1398
1862,1398
1863,1398
1864,1398
1865,1398
1866,1398
1867,1398
1868,1398
1869,1398
1870,1398
1871,1398
1872,1398
1873,1398
1874,1398
1875,1398
1876,1397
1877,1396
1878,1395
1879,1395
1880,1395
1881,1395
1882,1395
1883,1395
1884,1395
1885,1394
1886,1393
1887,1392
1888,1392
1889,1392
1890,1392
1891,1392
1892,1392
1893,1392
1894,1392
1895,1392
1896,1393
1897,1394
1898,1395
1899,1395
1900,1395
1901,1395
1902,1395
1903,1395
1904,1395
1905,1395
1906,1395
1907,1394
1908,1393
1909,1392
1910,1392
1911,1392
1912,1392
1913,1392
1914,1392
1915,1392
1916,1392
1917,1392
1918,1392
1919,1392
1920,1392
1921,1392
1922,1392
1923,1392
1924,1392
1925,1392
1926,1392
1927,1392
1928,1392
1929,1392
1930,1392
1931,1392
1932,1392
1933,1392
1934,1392
1935,1392
1936,1392
1937,1392
1938,1392
1939,1392
1940,1392
1941,1392
1942,1392
1943,1392
1944,1392
1945,1392
1946,1392
1947,1392
1948,1392
1949,1392
1950,1392
1951,1392
1952,1392
1953,1392
1954,1392
1955,1392
1956,1392
1957,1392
1958,1392
1959,1392
1960,1392
1961,1392
1962,1392
1963,1393
1964,1394
1965,1395
1966,1395
1967,1395
1968,1395
1969,1395
1970,1395
1971,1395
1972,1393
1973,1392
1974,1392
1975,1392
1976,1392
1977,1392
1978,1392
1979,1392
1980,1392
1981,1391
1982,1390
1983,1389
1984,1388
1985,1387
1986,1385
1987,1384
1988,1383
1989,1383
1990,1382
1991,1382
1992,1382
1993,1382
1994,1382
1995,1382
1996,1382
1997,1382
1998,1382
1999,1382
2000,1382
2001,1382
2002,1382
2003,1382
2004,1382
2005,1382
2006,1382
2007,1382
2008,1382
2009,1382
2010,1382
2011,1382
2012,1382
2013,1382
2014,1382
2015,1383
