index,II
382,89
383,89
384,89
385,89
386,89
387,89
388,88
389,88
390,88
391,88
392,88
393,88
394,89
395,89
396,89
397,89
398,89
399,89
400,89
401,89
402,89
403,91
404,91
405,92
406,92
407,92
408,92
409,92
410,92
411,92
412,92
413,91
414,91
415,90
416,91
417,92
418,92
419,92
420,93
421,93
422,94
423,94
424,94
425,94
426,101
427,102
428,103
429,108
430,109
431,112
432,113
433,108
434,113
435,112
436,112
437,107
438,105
439,98
440,97
441,95
442,92
443,92
444,92
445,92
446,92
447,92
448,93
449,93
450,93
451,93
452,93
453,93
454,92
455,92
456,92
457,92
458,92
459,91
460,91
461,91
462,92
463,92
464,89
465,85
466,83
467,83
468,106
469,143
470,189
471,81
472,81
473,92
474,76
475,67
476,67
477,66
478,131
479,110
480,73
481,86
482,86
483,73
484,84
485,85
486,85
487,85
488,84
489,84
490,83
491,83
492,83
493,83
494,83
495,84
496,84
497,90
498,93
499,95
500,103
501,106
502,110
503,114
504,121
505,125
506,131
507,138
508,140
509,143
510,148
511,148
512,148
513,148
514,145
515,137
516,134
517,132
518,130
519,123
520,120
521,114
522,107
523,99
524,98
525,94
526,92
527,90
528,90
529,89
530,90
531,86
532,88
533,88
534,88
535,88
536,88
537,88
538,88
539,87
540,87
541,87
542,88
543,88
544,88
545,88
546,88
547,90
548,90
549,90
550,90
551,90
552,90
553,90
554,90
555,90
556,91
557,91
558,91
559,92
560,92
561,93
562,93
563,94
564,97
565,99
566,100
567,102
568,107
569,109
570,112
571,113
572,113
573,113
574,112
575,110
576,105
577,105
578,100
579,97
580,96
581,94
582,93
583,91
584,91
585,91
586,91
587,91
588,90
589,90
590,90
591,90
592,90
593,90
594,91
595,91
596,91
597,92
598,92
599,92
600,92
601,93
602,93
603,93
604,93
605,91
606,91
607,91
608,93
609,91
610,91
611,91
612,92
613,92
614,92
615,92
616,92
617,92
618,92
619,92
620,95
621,95
622,93
623,93
624,93
625,93
626,93
627,93
628,93
629,95
630,95
631,95
632,95
633,93
634,93
635,91
636,91
637,94
638,94
639,94
640,94
641,94
642,94
643,94
644,94
645,91
646,91
647,91
648,94
649,91
650,91
651,92
652,92
653,93
654,93
655,93
656,93
657,92
658,92
659,92
660,92
661,91
662,92
663,92
664,92
665,94
666,94
667,95
668,95
669,95
670,95
671,95
672,94
673,92
674,92
675,91
676,91
677,93
678,93
679,93
680,93
681,91
682,91
683,92
684,92
685,92
686,92
687,93
688,93
689,93
690,93
691,93
692,92
693,92
694,92
695,92
696,92
697,92
698,92
699,93
700,93
701,94
702,94
703,95
704,96
705,97
706,98
707,103
708,105
709,106
710,111
711,113
712,114
713,107
714,114
715,113
716,112
717,108
718,103
719,101
720,99
721,95
722,94
723,93
724,91
725,91
726,91
727,91
728,91
729,91
730,91
731,93
732,93
733,93
734,93
735,93
736,93
737,92
738,92
739,92
740,91
741,91
742,93
743,93
744,93
745,93
746,93
747,83
748,78
749,78
750,75
751,75
752,75
753,188
754,84
755,74
756,178
757,79
758,79
759,78
760,77
761,65
762,67
763,67
764,70
765,80
766,81
767,80
768,81
769,83
770,84
771,84
772,84
773,85
774,88
775,89
776,89
777,91
778,95
779,97
780,98
781,102
782,106
783,109
784,114
785,125
786,128
787,132
788,137
789,139
790,141
791,145
792,147
793,147
794,147
795,147
796,147
797,139
798,137
799,129
800,120
801,118
802,115
803,108
804,104
805,101
806,98
807,91
808,89
809,87
810,86
811,86
812,86
813,86
814,86
815,86
816,86
817,86
818,86
819,86
820,86
821,87
822,86
823,86
824,87
825,87
826,87
827,88
828,88
829,88
830,89
831,89
832,90
833,92
834,92
835,93
836,93
837,93
838,93
839,91
840,91
841,92
842,92
843,92
844,94
845,94
846,98
847,99
848,102
849,107
850,107
851,113
852,114
853,114
854,114
855,113
856,113
857,108
858,107
859,102
860,100
861,99
862,97
863,93
864,91
865,91
866,91
867,92
868,92
869,91
870,91
871,91
872,90
873,90
874,90
875,91
876,91
877,92
878,92
879,92
880,92
881,92
882,91
883,90
884,90
885,89
886,89
887,89
888,89
889,89
890,90
891,90
892,90
893,92
894,93
895,93
896,93
897,93
898,93
899,93
900,93
901,93
902,93
903,94
904,94
905,93
906,93
907,93
908,93
909,92
910,91
911,91
912,91
913,92
914,92
915,92
916,92
917,92
918,92
919,92
920,92
921,93
922,93
923,94
924,95
925,95
926,95
927,95
928,95
929,94
930,93
931,93
932,93
933,93
934,94
935,94
936,94
937,95
938,95
939,95
940,94
941,94
942,94
943,94
944,94
945,94
946,94
947,93
948,93
949,92
950,92
951,92
952,92
953,92
954,92
955,92
956,92
957,92
958,92
959,92
960,93
961,92
962,92
963,92
964,92
965,92
966,92
967,92
968,92
969,91
970,90
971,90
972,93
973,94
974,94
975,95
976,95
977,94
978,94
979,95
980,95
981,92
982,91
983,91
984,91
985,91
986,92
987,97
988,103
989,104
990,108
991,111
992,111
993,113
994,113
995,113
996,112
997,109
998,105
999,102
1000,102
1001,100
1002,90
1003,92
1004,92
1005,93
1006,93
1007,91
1008,91
1009,91
1010,91
1011,91
1012,90
1013,90
1014,92
1015,93
1016,93
1017,95
1018,95
1019,96
1020,96
1021,96
1022,96
1023,96
1024,94
1025,93
1026,85
1027,85
1028,85
1029,85
1030,84
1031,84
1032,89
1033,188
1034,189
1035,86
1036,78
1037,67
1038,67
1039,66
1040,66
1041,68
1042,70
1043,73
1044,76
1045,78
1046,79
1047,85
1048,86
1049,87
1050,87
1051,87
1052,86
1053,86
1054,86
1055,88
1056,88
1057,89
1058,89
1059,93
1060,97
1061,100
1062,105
1063,109
1064,115
1065,119
1066,124
1067,130
1068,132
1069,137
1070,144
1071,148
1072,151
1073,151
1074,150
1075,149
1076,147
1077,141
1078,133
1079,130
1080,128
1081,123
1082,116
1083,110
1084,102
1085,99
1086,96
1087,91
1088,87
1089,86
1090,86
1091,86
1092,86
1093,86
1094,87
1095,87
1096,86
1097,86
1098,86
1099,85
1100,85
1101,85
1102,85
1103,87
1104,87
1105,87
1106,87
1107,89
1108,89
1109,89
1110,89
1111,89
1112,89
1113,89
1114,89
1115,90
1116,90
1117,90
1118,90
1119,91
1120,92
1121,93
1122,93
1123,93
1124,93
1125,93
1126,93
1127,94
1128,97
1129,99
1130,104
1131,105
1132,106
1133,111
1134,114
1135,114
1136,115
1137,114
1138,112
1139,111
1140,106
1141,102
1142,102
1143,100
1144,95
1145,93
1146,91
1147,91
1148,92
1149,92
1150,92
1151,92
1152,92
1153,92
1154,91
1155,91
1156,91
1157,92
1158,92
1159,92
1160,92
1161,94
1162,94
1163,91
1164,94
1165,94
1166,94
1167,93
1168,92
1169,92
1170,91
1171,91
1172,91
1173,91
1174,91
1175,91
1176,92
1177,93
1178,93
1179,92
1180,94
1181,91
1182,91
1183,94
1184,94
1185,93
1186,93
1187,91
1188,91
1189,91
1190,91
1191,91
1192,91
1193,93
1194,93
1195,93
1196,95
1197,95
1198,95
1199,94
1200,94
1201,94
1202,93
1203,93
1204,92
1205,91
1206,91
1207,93
1208,93
1209,92
1210,92
1211,92
1212,92
1213,92
1214,92
1215,93
1216,92
1217,92
1218,92
1219,92
1220,92
1221,93
1222,93
1223,93
1224,92
1225,91
1226,91
1227,90
1228,90
1229,90
1230,90
1231,91
1232,91
1233,93
1234,93
1235,93
1236,94
1237,95
1238,95
1239,95
1240,95
1241,95
1242,94
1243,94
1244,94
1245,93
1246,93
1247,93
1248,93
1249,93
1250,93
1251,93
1252,93
1253,93
1254,93
1255,93
1256,93
1257,93
1258,93
1259,93
1260,93
1261,93
1262,93
1263,93
1264,93
1265,92
1266,92
1267,92
1268,92
1269,92
1270,96
1271,97
1272,101
1273,109
1274,109
1275,113
1276,114
1277,114
1278,114
1279,114
1280,113
1281,108
1282,108
1283,103
1284,99
1285,97
1286,95
1287,89
1288,89
1289,90
1290,90
1291,90
1292,90
1293,90
1294,90
1295,91
1296,91
1297,91
1298,92
1299,92
1300,92
1301,93
1302,93
1303,94
1304,94
1305,94
1306,94
1307,94
1308,95
1309,95
1310,95
1311,86
1312,86
1313,86
1314,134
1315,149
1316,82
1317,82
1318,83
1319,83
1320,83
1321,84
1322,84
1323,72
1324,105
1325,85
1326,73
1327,81
1328,81
1329,81
1330,82
1331,84
1332,85
1333,84
1334,84
1335,85
1336,85
1337,85
1338,85
1339,87
1340,88
1341,89
1342,89
1343,91
1344,96
1345,98
1346,101
1347,105
1348,112
1349,114
1350,118
1351,127
1352,132
1353,134
1354,143
1355,147
1356,148
1357,145
1358,145
1359,144
1360,147
1361,144
1362,136
1363,130
1364,127
1365,123
1366,117
1367,112
1368,109
1369,101
1370,95
1371,93
1372,86
1373,86
1374,86
1375,86
1376,86
1377,90
1378,88
1379,88
1380,89
1381,90
1382,90
1383,90
1384,89
1385,88
1386,88
1387,88
1388,87
1389,87
1390,87
1391,87
1392,87
1393,87
1394,90
1395,90
1396,90
1397,90
1398,92
1399,92
1400,92
1401,92
1402,92
1403,92
1404,92
1405,92
1406,93
1407,93
1408,93
1409,93
1410,93
1411,97
1412,102
1413,103
1414,105
1415,109
1416,111
1417,115
1418,115
1419,114
1420,114
1421,113
1422,109
1423,100
1424,98
1425,97
1426,93
1427,91
1428,88
1429,88
1430,88
1431,90
1432,90
1433,90
1434,90
1435,90
1436,90
1437,90
1438,89
1439,89
1440,89
1441,89
1442,90
1443,90
1444,91
1445,93
1446,91
1447,91
1448,91
1449,96
1450,93
1451,96
1452,96
1453,95
1454,95
1455,95
1456,95
1457,95
1458,94
1459,93
1460,92
1461,92
1462,92
1463,92
1464,92
1465,92
1466,92
1467,92
1468,92
1469,92
1470,92
1471,92
1472,92
1473,92
1474,92
1475,92
1476,92
1477,92
1478,92
1479,92
1480,92
1481,92
1482,92
1483,92
1484,94
1485,94
1486,94
1487,94
1488,94
1489,93
1490,93
1491,93
1492,93
1493,94
1494,94
1495,94
1496,94
1497,94
1498,94
1499,94
1500,94
1501,94
1502,94
1503,94
1504,94
1505,92
1506,92
1507,92
1508,92
1509,92
1510,93
1511,97
1512,97
1513,96
1514,97
1515,97
1516,95
1517,94
1518,93
1519,91
1520,91
1521,91
1522,91
1523,92
1524,93
1525,94
1526,94
1527,94
1528,94
1529,94
1530,94
1531,94
1532,93
1533,93
1534,93
1535,93
1536,93
1537,93
1538,93
1539,92
1540,92
1541,93
1542,93
1543,90
1544,90
1545,90
1546,90
1547,90
1548,90
1549,90
1550,96
1551,98
1552,101
1553,103
1554,106
1555,107
1556,111
1557,113
1558,114
1559,113
1560,113
1561,111
1562,106
1563,103
1564,97
1565,96
1566,93
1567,91
1568,91
1569,91
1570,91
1571,91
1572,92
1573,92
1574,92
1575,92
1576,92
1577,93
1578,94
1579,96
1580,96
1581,96
1582,96
1583,96
1584,96
1585,95
1586,95
1587,93
1588,91
1589,90
1590,89
1591,82
1592,82
1593,80
1594,80
1595,76
1596,76
1597,76
1598,76
1599,77
1600,77
1601,77
1602,77
1603,67
1604,67
1605,67
1606,67
1607,69
1608,69
1609,83
1610,83
1611,84
1612,84
1613,84
1614,84
1615,84
1616,84
1617,85
1618,87
1619,87
1620,88
1621,89
1622,89
1623,90
1624,93
1625,99
1626,102
1627,104
1628,108
1629,114
1630,117
1631,119
1632,127
1633,135
1634,138
1635,144
1636,146
1637,146
1638,146
1639,146
1640,146
1641,145
1642,141
1643,135
1644,129
1645,125
1646,122
1647,116
1648,107
1649,105
1650,100
1651,96
1652,94
1653,90
1654,84
1655,84
1656,83
1657,83
1658,83
1659,83
1660,84
1661,84
1662,87
1663,87
1664,88
1665,89
1666,89
1667,89
1668,89
1669,89
1670,89
1671,89
1672,90
1673,91
1674,91
1675,91
1676,91
1677,91
1678,91
1679,91
1680,90
1681,90
1682,90
1683,90
1684,91
1685,91
1686,92
1687,92
1688,92
1689,93
1690,94
1691,96
1692,99
1693,105
1694,106
1695,111
1696,112
1697,113
1698,114
1699,114
1700,113
1701,109
1702,107
1703,104
1704,103
1705,101
1706,100
1707,91
1708,90
1709,89
1710,89
1711,89
1712,89
1713,91
1714,91
1715,89
1716,90
1717,91
1718,91
1719,91
1720,91
1721,91
1722,91
1723,90
1724,90
1725,90
1726,90
1727,91
1728,91
1729,92
1730,93
1731,93
1732,93
1733,93
1734,94
1735,94
1736,94
1737,94
1738,94
1739,94
1740,94
1741,94
1742,93
1743,93
1744,93
1745,92
1746,92
1747,94
1748,94
1749,94
1750,94
1751,94
1752,94
1753,92
1754,92
1755,92
1756,91
1757,91
1758,91
1759,91
1760,91
1761,93
1762,91
1763,91
1764,91
1765,91
1766,91
1767,92
1768,92
1769,93
1770,93
1771,93
1772,93
1773,93
1774,95
1775,95
1776,96
1777,96
1778,95
1779,95
1780,95
1781,95
1782,95
1783,94
1784,94
1785,94
1786,93
1787,92
1788,92
1789,92
1790,92
1791,92
1792,92
1793,92
1794,92
1795,91
1796,91
1797,91
1798,91
1799,91
1800,91
1801,92
1802,91
1803,91
1804,92
1805,92
1806,93
1807,93
1808,95
1809,95
1810,94
1811,93
1812,93
1813,93
1814,96
1815,95
1816,93
1817,93
1818,93
1819,93
1820,93
1821,92
1822,93
1823,93
1824,93
1825,93
1826,93
1827,93
1828,92
1829,91
1830,91
1831,93
1832,97
1833,99
1834,101
1835,108
1836,109
1837,113
1838,115
1839,115
1840,115
1841,115
1842,112
1843,104
1844,103
1845,100
1846,98
1847,95
1848,94
1849,91
1850,91
1851,91
1852,91
1853,91
1854,92
1855,92
1856,92
1857,92
1858,92
1859,92
1860,92
1861,92
1862,92
1863,92
1864,93
1865,93
1866,94
1867,94
1868,94
1869,95
1870,95
1871,95
1872,95
1873,87
1874,95
1875,119
1876,152
1877,189
1878,189
1879,87
1880,76
1881,66
1882,65
1883,65
1884,159
1885,150
1886,71
1887,71
1888,70
1889,71
1890,83
1891,85
1892,85
1893,86
1894,86
1895,88
1896,90
1897,90
1898,90
1899,90
1900,89
1901,89
1902,89
1903,90
1904,91
1905,93
1906,97
1907,104
1908,107
1909,109
1910,117
1911,121
1912,124
1913,133
1914,138
1915,140
1916,145
1917,146
1918,147
1919,146
1920,146
1921,146
1922,141
1923,134
1924,128
1925,121
1926,119
1927,117
1928,110
1929,104
1930,100
1931,95
1932,93
1933,92
1934,89
1935,83
1936,83
1937,83
1938,83
1939,83
1940,83
1941,84
1942,84
1943,84
1944,85
1945,86
1946,87
1947,87
1948,87
1949,87
1950,88
1951,88
1952,88
1953,88
1954,88
1955,90
1956,90
1957,91
1958,91
1959,91
1960,91
1961,91
1962,91
1963,90
1964,90
1965,90
1966,90
1967,90
1968,97
1969,98
1970,99
1971,99
1972,99
1973,99
1974,101
1975,109
1976,110
1977,112
1978,113
1979,114
1980,114
1981,113
1982,111
1983,110
1984,105
1985,101
1986,98
1987,95
1988,91
1989,89
1990,89
1991,89
1992,89
1993,89
1994,89
1995,91
1996,91
1997,91
1998,91
1999,91
2000,91
2001,91
2002,91
2003,91
2004,91
2005,92
2006,92
2007,92
2008,92
2009,93
2010,94
2011,94
2012,94
2013,94
2014,93
2015,92
2016,92
2017,92
2018,92
2019,91
2020,91
2021,92
2022,92
2023,93
2024,93
2025,93
2026,94
2027,94
2028,94
2029,94
2030,94
2031,94
2032,91
2033,91
2034,91
2035,93
2036,94
2037,91
2038,92
2039,92
2040,92
2041,91
2042,91
2043,91
2044,91
2045,91
2046,91
2047,92
2048,92
2049,92
2050,93
2051,93
2052,94
2053,94
2054,94
2055,94
2056,94
2057,94
2058,94
2059,95
2060,95
2061,91
2062,91
2063,92
2064,92
2065,90
2066,90
2067,90
2068,92
2069,90
2070,91
2071,91
2072,92
2073,92
2074,92
2075,92
2076,92
2077,92
2078,92
