Value
2.1163369963369965
2.1343101343101343
2.1725030525030524
2.2241758241758243
2.2893284493284494
2.3421245421245422
2.403907203907204
2.543199023199023
2.76
2.9577045177045176
3.2014652014652016
3.4665689865689866
3.7125763125763127
3.8619780219780218
3.92937728937729
3.966446886446888
3.992283272283272
3.93948717948718
3.764249084249084
3.586764346764346
3.4306227106227105
3.360976800976801
3.2385347985347988
3.007130647130647
2.706080586080586
2.272478632478633
1.9231257631257632
1.693968253968254
1.52996336996337
1.468180708180708
1.4535775335775336
1.4344810744810743
1.4187545787545788
1.403028083028083
1.3873015873015873
1.3906715506715506
1.3929181929181929
1.3917948717948718
1.3929181929181929
1.3951648351648351
1.3985347985347985
1.3929181929181929
1.383931623931624
1.382808302808303
1.3816849816849817
1.3783150183150183
1.3670818070818072
1.3513553113553114
1.3367521367521369
1.3243956043956044
1.3052991452991454
1.2940659340659342
1.2828327228327228
1.2682295482295485
1.2592429792429791
1.2502564102564102
1.2513797313797317
1.2491330891330892
1.2525030525030525
1.267106227106227
1.2906959706959706
1.3165323565323566
1.3547252747252747
1.4075213675213676
1.4603174603174602
1.5176068376068377
1.5827594627594628
1.6546520146520147
1.7254212454212454
1.7916971916971918
1.857973137973138
1.920879120879121
1.9714285714285715
2.015238095238096
2.0646642246642246
2.1017338217338217
2.1197069597069595
2.135433455433456
2.1646398046398048
2.176996336996337
2.1803663003663005
2.1848595848595846
2.189352869352869
2.194969474969475
2.185982905982906
2.1826129426129426
2.1826129426129426
2.1904761904761907
2.1904761904761907
2.187106227106227
2.1904761904761907
2.1848595848595846
2.1803663003663005
2.1826129426129426
2.187106227106227
2.1904761904761907
2.185982905982906
2.178119658119658
2.1803663003663005
2.178119658119658
2.179242979242979
2.179242979242979
2.178119658119658
2.1826129426129426
2.1826129426129426
2.183736263736264
2.188229548229548
2.212942612942613
2.2466422466422467
2.266862026862027
2.256752136752137
2.300561660561661
2.374700854700855
2.387057387057387
2.3556043956043955
2.307301587301587
2.251135531135531
2.1972161172161173
2.168009768009768
2.163516483516484
2.1421733821733824
2.1051037851037853
2.075897435897436
2.0624175824175826
2.0725274725274727
2.0781440781440783
2.077020757020757
2.0781440781440783
2.086007326007326
2.0927472527472526
2.084884004884005
2.083760683760684
2.093870573870574
2.098363858363858
2.0905006105006105
2.091623931623932
2.094993894993895
2.091623931623932
2.093870573870574
2.09948717948718
2.1006105006105007
2.098363858363858
2.094993894993895
2.09948717948718
2.114090354090354
2.1197069597069595
2.1185836385836385
2.120830280830281
2.133186813186813
2.1713797313797314
2.293821733821734
2.5488156288156287
2.8813186813186813
3.175628815628816
3.185738705738706
2.7094505494505494
2.0377045177045177
1.4917704517704518
1.2794627594627594
1.4378510378510378
1.737777777777778
2.007374847374847
2.1421733821733824
2.1814896214896216
2.168009768009768
2.1444200244200244
2.1466666666666665
2.145543345543345
2.141050061050061
2.1444200244200244
2.1545299145299146
2.159023199023199
2.1578998778998777
2.1646398046398048
2.1725030525030524
2.175873015873016
2.173626373626373
2.1814896214896216
2.193846153846154
2.205079365079365
2.2073260073260075
2.215189255189255
2.233162393162393
2.243272283272283
2.2545054945054943
2.272478632478633
2.283711843711844
2.296068376068376
2.3185347985347984
2.334261294261294
2.3522344322344324
2.375824175824176
2.3937973137973136
2.4207570207570206
2.4364835164835164
2.452210012210012
2.464566544566545
2.48029304029304
2.488156288156288
2.4926495726495728
2.4847863247863247
2.467936507936508
2.451086691086691
2.426373626373626
2.384810744810745
2.333137973137973
2.2825885225885227
2.2365323565323565
2.188229548229548
2.132063492063492
2.077020757020757
2.032087912087912
1.9927716727716729
1.9658119658119653
1.9287423687423688
1.9051526251526247
1.8894261294261288
1.8736996336996337
1.86021978021978
1.8456166056166057
1.8444932844932844
1.8456166056166057
1.84
1.841123321123321
1.8467399267399267
1.8546031746031744
1.8568498168498169
1.8590964590964592
1.868083028083028
1.875946275946276
1.875946275946276
1.8781929181929184
1.8894261294261288
1.8972893772893773
1.89953601953602
1.907399267399268
1.9186324786324789
1.9231257631257632
1.9242490842490845
1.920879120879121
1.9298656898656896
1.9309890109890109
1.927619047619048
1.9287423687423688
1.9332356532356527
1.932112332112332
1.941098901098901
1.941098901098901
1.9388522588522588
1.9388522588522588
1.9377289377289373
1.9388522588522588
1.9433455433455435
1.947838827838828
1.9467155067155064
1.9455921855921856
1.948962148962149
1.9467155067155064
1.9545787545787543
1.9545787545787543
1.948962148962149
1.948962148962149
1.9512087912087912
1.9500854700854704
1.9534554334554333
1.957948717948718
1.9613186813186807
1.964688644688645
1.9658119658119653
1.963565323565324
1.966935286935287
1.9714285714285715
1.977045177045177
1.9714285714285715
1.9781684981684984
1.9815384615384608
1.983785103785104
1.9826617826617827
1.987155067155067
1.986031746031746
1.986031746031746
1.9826617826617827
1.9927716727716729
1.995018315018315
1.993894993894994
1.9927716727716729
2.0017582417582416
2.002881562881563
2.0006349206349205
2.0017582417582416
2.006251526251526
2.006251526251526
2.0084981684981686
2.0174847374847373
2.0174847374847373
2.007374847374847
2.0107448107448107
2.0264713064713065
2.0287179487179485
2.0365811965811966
2.0523076923076924
2.068034188034188
2.1006105006105007
2.1197069597069595
2.123076923076923
2.1904761904761907
2.2522588522588523
2.2533821733821733
2.2264224664224663
2.187106227106227
2.120830280830281
2.0714041514041512
2.05006105006105
2.057924297924298
2.035457875457876
1.9983882783882785
1.9714285714285715
1.963565323565324
1.964688644688645
1.9826617826617827
1.9905250305250304
1.9882783882783883
1.991648351648352
1.9983882783882785
1.9983882783882785
2.005128205128205
2.0084981684981686
2.0107448107448107
2.015238095238096
2.0556776556776555
2.187106227106227
2.452210012210012
2.7847130647130647
3.1037362637362635
3.195848595848596
2.804932844932845
2.1713797313797314
1.5569230769230769
1.2558730158730158
1.374945054945055
1.6827350427350427
1.9455921855921856
2.0747741147741148
2.1006105006105007
2.093870573870574
2.0815140415140414
2.07028083028083
2.0747741147741148
2.0815140415140414
2.087130647130647
2.0927472527472526
2.09948717948718
2.09948717948718
2.1028571428571428
2.114090354090354
2.1264468864468866
2.132063492063492
2.141050061050061
2.1466666666666665
2.1578998778998777
2.163516483516484
2.1725030525030524
2.188229548229548
2.194969474969475
2.203956043956044
2.2185592185592187
2.2365323565323565
2.25001221001221
2.267985347985348
2.274725274725274
2.294945054945055
2.3174114774114773
2.3365079365079366
2.357851037851038
2.376947496947497
2.396043956043956
2.412893772893773
2.4185103785103785
2.4286202686202687
2.435360195360196
2.4331135531135533
2.421880341880342
2.414017094017094
2.3904273504273506
2.371330891330892
2.343247863247864
2.306178266178266
2.258998778998779
2.205079365079365
2.159023199023199
2.1095970695970694
2.061294261294261
2.025347985347985
1.9983882783882785
1.9747985347985348
1.941098901098901
1.9085225885225885
1.8927960927960927
1.883809523809524
1.869206349206349
1.8647130647130647
1.8590964590964592
1.8546031746031744
1.848986568986569
1.855726495726496
1.8624664224664225
1.8590964590964592
1.8568498168498169
1.8613431013431008
1.8736996336996337
1.877069597069597
1.877069597069597
1.877069597069597
1.8781929181929184
1.893919413919414
1.913015873015873
1.9366056166056167
1.9624420024420024
1.989401709401709
2.066910866910867
2.174749694749695
2.3140415140415143
2.467936507936508
2.635311355311355
2.8464957264957267
3.1104761904761906
3.3576068376068378
3.550818070818071
3.7058363858363856
3.8046886446886448
3.836141636141636
3.81929181929182
3.722686202686203
3.5058852258852258
3.314920634920635
3.1306959706959705
2.7746031746031745
2.357851037851038
2.021978021978022
1.72991452991453
1.5052503052503052
1.3906715506715506
1.3592185592185593
1.3536019536019537
1.3434920634920635
1.33001221001221
1.3255189255189257
1.33001221001221
1.3345054945054946
1.3333821733821734
1.3423687423687425
1.356971916971917
1.3693284493284494
1.376068376068376
1.3738217338217338
1.3715750915750915
1.3794383394383394
1.383931623931624
1.382808302808303
1.383931623931624
1.3816849816849817
1.383931623931624
1.382808302808303
1.385054945054945
1.374945054945055
1.3547252747252747
1.3547252747252747
1.3592185592185593
1.3592185592185593
1.3648351648351649
1.3726984126984128
1.3895482295482295
1.4063980463980463
1.4322344322344325
1.4737973137973135
1.5086202686202683
1.5557997557997558
1.6074725274725274
1.6613919413919414
1.7186813186813186
1.7658608058608058
1.813040293040293
1.8624664224664225
1.907399267399268
1.9343589743589744
1.96019536019536
1.9792918192918192
1.9905250305250304
2.004004884004884
2.0129914529914528
2.01973137973138
2.0287179487179485
2.030964590964591
2.032087912087912
2.034334554334554
2.030964590964591
2.0365811965811966
2.043321123321124
2.051184371184372
2.051184371184372
2.0657875457875456
2.084884004884005
2.123076923076923
2.152283272283272
2.152283272283272
2.1702564102564104
2.25001221001221
2.2882051282051283
2.278095238095238
2.243272283272283
2.1826129426129426
2.121953601953602
2.093870573870574
2.0905006105006105
2.0792673992674
2.034334554334554
1.996141636141636
1.9826617826617827
1.9927716727716729
2.006251526251526
2.0163614163614163
2.0141147741147742
2.0084981684981686
2.0129914529914528
2.021978021978022
2.023101343101343
2.020854700854701
2.030964590964591
2.035457875457876
2.034334554334554
2.034334554334554
2.041074481074481
2.05006105006105
2.051184371184372
2.0523076923076924
2.0523076923076924
2.0523076923076924
2.056800976800977
2.06017094017094
2.0624175824175826
2.068034188034188
2.063540903540904
2.066910866910867
2.0747741147741148
2.0747741147741148
2.0736507936507937
2.0714041514041512
2.084884004884005
2.0882539682539685
2.0803907203907204
2.084884004884005
2.087130647130647
2.086007326007326
2.087130647130647
2.089377289377289
2.0927472527472526
2.091623931623932
2.089377289377289
2.0882539682539685
2.094993894993895
2.091623931623932
2.089377289377289
2.089377289377289
2.094993894993895
2.0927472527472526
2.089377289377289
2.0927472527472526
2.091623931623932
2.0927472527472526
2.098363858363858
2.1028571428571428
2.1028571428571428
2.0905006105006105
2.089377289377289
2.103980463980464
2.111843711843712
2.1062271062271063
2.1051037851037853
2.1084737484737484
2.103980463980464
2.1062271062271063
2.107350427350428
2.1095970695970694
2.1095970695970694
2.1028571428571428
2.1017338217338217
2.1084737484737484
2.111843711843712
2.110720390720391
2.114090354090354
2.112967032967033
2.111843711843712
2.114090354090354
2.1084737484737484
2.114090354090354
2.1152136752136754
2.1152136752136754
2.1197069597069595
2.1185836385836385
2.120830280830281
2.1298168498168497
2.133186813186813
2.124200244200244
2.1152136752136754
2.1163369963369965
2.1197069597069595
2.123076923076923
2.125323565323565
2.127570207570208
2.1298168498168497
2.141050061050061
2.147789987789988
2.1691330891330893
2.2106959706959706
2.2634920634920634
2.3174114774114773
2.3702075702075702
2.4544566544566546
2.613968253968254
2.811672771672772
3.0385836385836384
3.3003174603174603
3.5564346764346766
3.762002442002442
3.865347985347985
3.933870573870574
3.964200244200245
3.9495970695970697
3.831648351648352
3.633943833943834
3.472185592185592
3.3890598290598293
3.332893772893773
3.1408058608058607
2.883565323565324
2.52971916971917
2.121953601953602
1.832136752136752
1.6164590964590964
1.4850305250305251
1.4423443223443224
1.4277411477411477
1.4165079365079365
1.3985347985347985
1.3884249084249085
1.377191697191697
1.374945054945055
1.377191697191697
1.376068376068376
1.376068376068376
1.3794383394383394
1.3805616605616606
1.385054945054945
1.376068376068376
1.374945054945055
1.374945054945055
1.3693284493284494
1.3603418803418803
1.35023199023199
1.337875457875458
1.3266422466422467
1.3097924297924295
1.3019291819291818
1.291819291819292
1.2715995115995116
1.258119658119658
1.2536263736263735
1.2547496947496948
1.2547496947496948
1.2558730158730158
1.267106227106227
1.2884493284493284
1.3232722832722832
1.356971916971917
1.3996581196581197
1.455824175824176
1.5176068376068377
1.5872527472527471
1.656898656898657
1.72991452991453
1.7928205128205128
1.85010989010989
1.911892551892552
1.9658119658119653
2.005128205128205
2.048937728937729
2.086007326007326
2.1084737484737484
2.1298168498168497
2.1567765567765567
2.1702564102564104
2.1713797313797314
2.1713797313797314
2.175873015873016
2.175873015873016
2.1702564102564104
2.1691330891330893
2.1814896214896216
2.206202686202686
2.2443956043956046
2.2713553113553115
2.267985347985348
2.2882051282051283
2.36009768009768
2.397167277167277
2.388180708180708
2.341001221001221
2.272478632478633
2.209572649572649
2.1803663003663005
2.1623931623931623
2.151159951159951
2.114090354090354
2.0815140415140414
2.059047619047619
2.0545543345543344
2.057924297924298
2.069157509157509
2.0792673992674
2.0725274725274727
2.068034188034188
2.0747741147741148
2.0747741147741148
2.0781440781440783
2.0826373626373624
2.0815140415140414
2.0905006105006105
2.094993894993895
2.096117216117216
2.093870573870574
2.0927472527472526
2.093870573870574
2.098363858363858
2.1006105006105007
2.1006105006105007
2.112967032967033
2.123076923076923
2.125323565323565
2.1197069597069595
2.120830280830281
2.123076923076923
2.1163369963369965
2.117460317460317
2.125323565323565
2.1298168498168497
2.132063492063492
2.1343101343101343
2.132063492063492
2.1264468864468866
2.1264468864468866
2.121953601953602
2.123076923076923
2.124200244200244
2.124200244200244
2.1286935286935287
2.1286935286935287
2.125323565323565
2.121953601953602
2.1163369963369965
2.1152136752136754
2.111843711843712
2.110720390720391
2.1163369963369965
2.1197069597069595
2.1152136752136754
2.110720390720391
2.1095970695970694
2.112967032967033
2.1084737484737484
2.1084737484737484
2.1152136752136754
2.112967032967033
2.1084737484737484
2.110720390720391
2.1062271062271063
2.1062271062271063
2.1095970695970694
2.107350427350428
2.111843711843712
2.1084737484737484
2.1062271062271063
2.112967032967033
2.117460317460317
2.1152136752136754
2.1084737484737484
2.1062271062271063
2.107350427350428
2.112967032967033
2.1095970695970694
2.1017338217338217
2.110720390720391
2.107350427350428
2.107350427350428
2.107350427350428
2.1062271062271063
2.1095970695970694
2.112967032967033
2.112967032967033
2.1028571428571428
2.09948717948718
2.1051037851037853
2.111843711843712
2.117460317460317
2.1095970695970694
2.110720390720391
2.112967032967033
2.1095970695970694
2.098363858363858
2.1051037851037853
2.114090354090354
2.1084737484737484
2.111843711843712
2.1062271062271063
2.09948717948718
2.098363858363858
2.1051037851037853
2.09948717948718
2.1006105006105007
2.098363858363858
2.09948717948718
2.1095970695970694
2.107350427350428
2.103980463980464
2.1006105006105007
2.09948717948718
2.09948717948718
2.097240537240537
2.093870573870574
2.098363858363858
2.097240537240537
2.094993894993895
2.098363858363858
2.1062271062271063
2.111843711843712
2.1343101343101343
2.179242979242979
2.2455189255189256
2.2904517704517704
2.3387545787545787
2.417387057387057
2.5746520146520147
2.7824664224664226
2.9992673992674
3.26998778998779
3.531721611721612
3.7473992673992673
3.8664713064713054
3.937240537240537
3.975433455433456
3.978803418803418
3.8732112332112334
3.684493284493284
3.511501831501832
3.4047863247863246
3.3362637362637364
3.131819291819292
2.8464957264957267
2.464566544566545
2.041074481074481
1.7872039072039072
1.5917460317460317
1.4715506715506717
1.4322344322344325
1.4187545787545788
1.3951648351648351
1.3783150183150183
1.3682051282051282
1.3715750915750915
1.3670818070818072
1.3625885225885226
1.3625885225885226
1.3614652014652016
1.3614652014652016
1.3625885225885226
1.3715750915750915
1.3738217338217338
1.356971916971917
1.3536019536019537
1.3457387057387058
1.3356288156288156
1.3243956043956044
1.3176556776556776
1.3064224664224664
1.2906959706959706
1.2682295482295485
1.248009768009768
1.2345299145299145
1.2277899877899878
1.2221733821733822
1.2154334554334554
1.213186813186813
1.21992673992674
1.2277899877899878
1.2491330891330892
1.2772161172161172
1.3255189255189257
1.374945054945055
1.431111111111111
1.5052503052503052
1.5984859584859583
1.702954822954823
1.7804639804639804
1.857973137973138
1.989401709401709
2.0905006105006105
2.13992673992674
2.1432967032967034
2.1343101343101343
2.1264468864468866
2.1264468864468866
2.132063492063492
2.133186813186813
2.114090354090354
2.087130647130647
2.0714041514041512
2.086007326007326
2.1152136752136754
2.1343101343101343
2.155653235653236
2.211819291819292
2.3162881562881563
2.453333333333333
2.5926251526251525
2.7364102564102564
2.9296214896214896
3.1486691086691088
3.351990231990232
3.5609279609279607
3.7294261294261295
3.855238095238095
3.893431013431013
3.801318681318681
3.5305982905982907
3.26998778998779
3.132942612942613
2.9666910866910867
2.6802442002442004
2.463443223443224
2.241025641025641
1.9826617826617827
1.7647374847374848
1.6715018315018315
1.6524053724053724
1.6456654456654456
1.6355555555555557
1.6220757020757022
1.6164590964590964
1.6175824175824176
1.6187057387057386
1.6187057387057386
1.6220757020757022
1.6265689865689863
1.636678876678877
1.6344322344322344
1.6434188034188033
1.6512820512820512
1.6524053724053724
1.6524053724053724
1.6535286935286937
1.6501587301587302
1.6456654456654456
1.64004884004884
1.64004884004884
1.6355555555555557
1.6299389499389498
1.6243223443223442
1.6265689865689863
1.6243223443223442
1.620952380952381
1.6265689865689863
1.6378021978021975
1.6557753357753358
1.6748717948717948
1.6995848595848595
1.7366544566544566
1.7703540903540904
1.8085470085470088
1.8512332112332115
1.8927960927960927
1.9309890109890109
1.968058608058608
1.9983882783882785
2.0287179487179485
2.0377045177045177
2.048937728937729
2.061294261294261
2.061294261294261
2.0646642246642246
2.0657875457875456
2.066910866910867
2.069157509157509
2.0556776556776555
2.06017094017094
2.063540903540904
2.061294261294261
2.06017094017094
2.061294261294261
2.059047619047619
2.0556776556776555
2.0556776556776555
2.066910866910867
2.066910866910867
2.066910866910867
2.063540903540904
2.0736507936507937
2.0781440781440783
2.0781440781440783
2.0781440781440783
2.0803907203907204
2.087130647130647
2.0882539682539685
2.0826373626373624
2.084884004884005
2.0927472527472526
2.094993894993895
2.093870573870574
2.091623931623932
2.0882539682539685
2.0826373626373624
2.0882539682539685
2.091623931623932
2.0905006105006105
2.084884004884005
2.086007326007326
2.084884004884005
2.0815140415140414
2.0747741147741148
2.077020757020757
2.087130647130647
2.0826373626373624
2.0815140415140414
2.0803907203907204
2.0803907203907204
2.087130647130647
2.0905006105006105
2.0905006105006105
2.0882539682539685
2.086007326007326
2.0803907203907204
2.084884004884005
2.083760683760684
2.0792673992674
2.0815140415140414
2.0905006105006105
2.1006105006105007
2.1051037851037853
2.127570207570208
2.1725030525030524
2.2264224664224663
2.279218559218559
2.3365079365079366
2.417387057387057
2.569035409035409
2.7757264957264955
3.014993894993895
3.289084249084249
3.5609279609279607
3.7867155067155065
3.899047619047619
3.9765567765567766
4.022612942612943
4.0259829059829055
3.9417338217338216
3.766495726495727
3.591257631257631
3.507008547008547
3.4182661782661783
3.1655189255189256
2.768986568986569
2.296068376068376
1.9231257631257632
1.6973382173382174
1.5176068376068377
1.431111111111111
1.4063980463980463
1.3906715506715506
1.3715750915750915
1.3614652014652016
1.358095238095238
1.3524786324786324
1.3513553113553114
1.3558485958485955
1.356971916971917
1.3513553113553114
1.3513553113553114
1.3446153846153843
1.3457387057387058
1.3457387057387058
1.337875457875458
1.33001221001221
1.3232722832722832
1.3064224664224664
1.2895726495726496
1.2772161172161172
1.265982905982906
1.245763125763126
1.2188034188034187
1.2030769230769232
1.1918437118437115
1.1794871794871795
1.1761172161172162
1.1806105006105003
1.1985836385836386
1.2345299145299145
1.2940659340659342
1.3434920634920635
1.3816849816849817
1.4827838827838828
1.6142124542124543
1.6872283272283273
1.7254212454212454
1.7546275946275949
1.777094017094017
1.804053724053724
1.84
1.8984126984126983
1.9444688644688648
1.957948717948718
1.9781684981684984
2.005128205128205
2.0388278388278387
2.063540903540904
2.0803907203907204
2.0927472527472526
2.1084737484737484
2.1185836385836385
2.120830280830281
2.1286935286935287
2.1309401709401707
2.1286935286935287
2.137680097680098
2.1432967032967034
2.1421733821733824
2.135433455433456
2.1365567765567763
2.147789987789988
2.152283272283272
2.148913308913309
2.15003663003663
2.151159951159951
2.1545299145299146
2.1545299145299146
2.1567765567765567
2.1534065934065936
2.147789987789988
2.147789987789988
2.152283272283272
2.1545299145299146
2.159023199023199
2.159023199023199
2.1578998778998777
2.15003663003663
2.147789987789988
2.152283272283272
2.1623931623931623
2.166886446886447
2.161269841269841
2.1578998778998777
2.16014652014652
2.168009768009768
2.1623931623931623
2.16014652014652
2.1623931623931623
2.1623931623931623
2.166886446886447
2.1646398046398048
2.1713797313797314
2.165763125763126
2.1623931623931623
2.163516483516484
2.1646398046398048
2.1567765567765567
2.152283272283272
2.155653235653236
2.151159951159951
2.1444200244200244
2.141050061050061
2.13992673992674
2.1421733821733824
2.138803418803419
2.1365567765567763
2.1309401709401707
2.1309401709401707
2.1343101343101343
2.1343101343101343
2.1343101343101343
2.138803418803419
2.1309401709401707
2.1309401709401707
2.125323565323565
2.120830280830281
2.1185836385836385
2.120830280830281
2.123076923076923
2.1152136752136754
2.110720390720391
2.114090354090354
2.1185836385836385
2.1185836385836385
2.124200244200244
2.1286935286935287
2.124200244200244
2.1185836385836385
2.1197069597069595
2.123076923076923
2.124200244200244
2.1185836385836385
2.1197069597069595
2.1163369963369965
2.1197069597069595
2.117460317460317
2.111843711843712
2.1152136752136754
2.120830280830281
2.1163369963369965
2.1163369963369965
2.123076923076923
2.1197069597069595
2.117460317460317
2.117460317460317
2.1185836385836385
2.114090354090354
2.112967032967033
2.117460317460317
2.1197069597069595
2.112967032967033
2.1062271062271063
2.1095970695970694
2.1197069597069595
2.1185836385836385
2.1084737484737484
2.1051037851037853
2.1062271062271063
2.1062271062271063
2.110720390720391
2.1084737484737484
2.103980463980464
2.1017338217338217
2.1028571428571428
2.103980463980464
2.103980463980464
2.098363858363858
2.09948717948718
2.103980463980464
2.1062271062271063
2.098363858363858
2.09948717948718
2.09948717948718
2.1028571428571428
2.103980463980464
2.1062271062271063
2.09948717948718
2.09948717948718
2.098363858363858
2.103980463980464
2.1017338217338217
2.098363858363858
2.1051037851037853
2.1062271062271063
2.107350427350428
2.1006105006105007
2.110720390720391
2.133186813186813
2.166886446886447
2.2106959706959706
2.2713553113553115
2.333137973137973
2.4016605616605617
2.537582417582417
2.73978021978022
2.971184371184372
3.236288156288156
3.514871794871795
3.7552625152625154
3.901294261294261
3.9821733821733822
4.036092796092796
4.050695970695971
3.972063492063492
3.783345543345544
3.618217338217338
3.5182417582417584
3.447472527472528
3.2205616605616605
2.8734554334554336
2.4364835164835164
2.007374847374847
1.7535042735042734
1.5625396825396825
1.447960927960928
1.4176312576312575
1.3985347985347985
1.3592185592185593
1.3288888888888888
1.3097924297924295
1.2783394383394384
1.246886446886447
1.2188034188034187
1.2165567765567766
1.186227106227106
1.1783638583638585
1.258119658119658
1.3097924297924295
1.3255189255189257
1.3446153846153843
1.3524786324786324
1.338998778998779
1.310915750915751
1.2884493284493284
1.264859584859585
1.2525030525030525
1.2502564102564102
1.246886446886447
1.2322832722832724
1.210940170940171
1.1952136752136753
1.1794871794871795
1.1716239316239316
1.1626373626373627
1.1570207570207571
1.1592673992673992
1.1705006105006106
1.1963369963369963
1.2334065934065934
1.276092796092796
1.3243956043956044
1.3794383394383394
1.4468376068376068
1.5176068376068377
1.5872527472527471
1.667008547008547
1.7478876678876678
1.8175335775335768
1.881562881562881
1.941098901098901
1.996141636141636
2.043321123321124
2.0803907203907204
2.114090354090354
2.141050061050061
2.165763125763126
2.1803663003663005
2.188229548229548
2.1972161172161173
2.201709401709402
2.2174358974358976
2.2365323565323565
2.2612454212454214
2.284835164835165
2.341001221001221
2.44996336996337
2.5926251526251525
2.740903540903541
2.883565323565324
3.0576800976800977
3.26998778998779
3.489035409035409
3.696849816849817
3.872087912087912
4.029352869352869
4.06979242979243
4.06979242979243
3.854114774114774
3.550818070818071
3.354236874236874
3.114969474969475
2.7465201465201465
2.4859096459096457
2.2646153846153845
1.9972649572649568
1.784957264957265
1.684981684981685
1.6467887667887668
1.6288156288156288
1.615335775335775
1.5973626373626373
1.5894993894993894
1.5883760683760684
1.586129426129426
1.5827594627594628
1.586129426129426
1.5894993894993894
1.5906227106227109
1.5883760683760684
1.592869352869353
1.593992673992674
1.6007326007326008
1.5996092796092796
1.593992673992674
1.5984859584859583
1.5984859584859583
1.5872527472527471
1.5872527472527471
1.5906227106227109
1.5872527472527471
1.574896214896215
1.574896214896215
1.5782661782661782
1.5726495726495726
1.5816361416361415
1.5951159951159952
1.6029792429792429
1.613089133089133
1.6344322344322344
1.6692551892551892
1.704078144078144
1.7366544566544566
1.783833943833944
1.8332600732600728
1.875946275946276
1.9107692307692308
1.948962148962149
1.9792918192918192
2.004004884004884
2.018608058608059
2.02984126984127
2.041074481074481
2.05006105006105
2.051184371184372
2.056800976800977
2.057924297924298
2.0534310134310134
2.0545543345543344
2.059047619047619
2.057924297924298
2.06017094017094
2.0545543345543344
2.0534310134310134
2.0523076923076924
2.0455677655677658
2.048937728937729
2.0545543345543344
2.0556776556776555
2.0534310134310134
2.057924297924298
2.0624175824175826
2.061294261294261
2.061294261294261
2.066910866910867
2.0714041514041512
2.066910866910867
2.059047619047619
2.059047619047619
2.0646642246642246
2.0646642246642246
2.061294261294261
2.0624175824175826
2.063540903540904
2.068034188034188
2.0657875457875456
2.0646642246642246
2.07028083028083
2.0657875457875456
2.06017094017094
2.0657875457875456
2.0747741147741148
2.0714041514041512
2.0747741147741148
2.0792673992674
2.0725274725274727
2.0657875457875456
2.069157509157509
2.0714041514041512
2.068034188034188
2.0646642246642246
2.0657875457875456
2.0725274725274727
2.0736507936507937
2.0714041514041512
2.0803907203907204
2.089377289377289
2.091623931623932
2.1028571428571428
2.141050061050061
2.2005860805860804
2.2601221001221
2.3106715506715507
2.3814407814407814
2.5285958485958484
2.7296703296703297
2.956581196581197
3.2194383394383395
3.4924053724053725
3.733919413919414
3.872087912087912
3.957460317460317
4.004639804639805
4.019242979242979
3.9495970695970697
3.772112332112332
3.596874236874237
3.478925518925519
3.4171428571428573
3.2104517704517703
2.8745787545787547
2.4364835164835164
2.018608058608059
1.7782173382173383
1.6142124542124543
1.5288400488400489
1.5108669108669108
1.5131135531135531
1.5602930402930404
1.5614163614163614
1.5187301587301587
1.4715506715506717
1.4266178266178269
1.3794383394383394
1.356971916971917
1.3558485958485955
1.347985347985348
1.310915750915751
1.2783394383394384
1.2592429792429791
1.2558730158730158
1.2525030525030525
1.248009768009768
1.2367765567765567
1.2255433455433455
1.2064468864468865
1.1895970695970697
1.174993894993895
1.1615140415140417
1.148034188034188
1.1323076923076922
1.1109645909645909
1.1042246642246645
1.112087912087912
1.121074481074481
1.1334310134310135
1.1514041514041513
1.1772405372405372
1.2154334554334554
1.264859584859585
1.3255189255189257
1.3985347985347985
1.474920634920635
1.549059829059829
1.636678876678877
1.7186813186813186
1.7916971916971918
1.8568498168498169
1.920879120879121
1.9736752136752136
2.020854700854701
2.061294261294261
2.1028571428571428
2.132063492063492
2.1466666666666665
2.165763125763126
2.176996336996337
2.1826129426129426
2.1814896214896216
2.185982905982906
2.1972161172161173
2.19946275946276
2.1972161172161173
2.1983394383394383
2.19946275946276
2.194969474969475
2.194969474969475
2.1972161172161173
2.1960927960927963
2.194969474969475
2.188229548229548
2.189352869352869
2.194969474969475
2.194969474969475
2.189352869352869
2.188229548229548
2.1904761904761907
2.1826129426129426
2.179242979242979
2.179242979242979
2.175873015873016
2.175873015873016
2.1691330891330893
2.173626373626373
2.176996336996337
2.174749694749695
2.1725030525030524
2.1713797313797314
2.166886446886447
2.1578998778998777
2.1578998778998777
2.163516483516484
2.16014652014652
2.1567765567765567
2.151159951159951
2.1534065934065936
2.152283272283272
2.1534065934065936
2.159023199023199
2.1578998778998777
2.1578998778998777
2.152283272283272
2.1545299145299146
2.1545299145299146
2.151159951159951
2.1466666666666665
2.1545299145299146
2.15003663003663
2.148913308913309
2.151159951159951
2.151159951159951
2.15003663003663
2.155653235653236
2.155653235653236
2.1545299145299146
2.1466666666666665
2.1343101343101343
2.141050061050061
2.147789987789988
2.1444200244200244
2.141050061050061
2.138803418803419
2.1421733821733824
2.1444200244200244
2.1432967032967034
2.1432967032967034
2.147789987789988
2.141050061050061
2.13992673992674
2.137680097680098
2.13992673992674
2.1421733821733824
2.1432967032967034
2.141050061050061
2.135433455433456
2.135433455433456
2.135433455433456
2.137680097680098
2.138803418803419
2.1309401709401707
2.1298168498168497
2.1264468864468866
2.124200244200244
2.117460317460317
2.120830280830281
2.1298168498168497
2.1185836385836385
2.1197069597069595
2.123076923076923
2.1264468864468866
2.1309401709401707
2.121953601953602
2.1185836385836385
2.1185836385836385
2.1152136752136754
2.1163369963369965
2.123076923076923
2.1309401709401707
2.1264468864468866
2.121953601953602
2.125323565323565
2.125323565323565
2.1185836385836385
2.1152136752136754
2.120830280830281
2.1185836385836385
2.107350427350428
2.112967032967033
2.125323565323565
2.125323565323565
2.120830280830281
2.1163369963369965
2.1185836385836385
2.111843711843712
2.111843711843712
2.114090354090354
2.1095970695970694
2.103980463980464
2.1062271062271063
2.1062271062271063
2.1084737484737484
2.1084737484737484
2.114090354090354
2.1084737484737484
2.1062271062271063
2.1017338217338217
2.1017338217338217
2.1017338217338217
2.1017338217338217
2.1028571428571428
2.1006105006105007
2.096117216117216
2.096117216117216
2.094993894993895
2.103980463980464
2.1095970695970694
2.125323565323565
2.166886446886447
2.23990231990232
2.334261294261294
2.4016605616605617
2.46007326007326
2.613968253968254
2.8397557997558
3.0498168498168496
3.263247863247863
3.4834188034188034
3.699096459096459
3.86984126984127
3.9552136752136753
4.01025641025641
4.022612942612943
3.960830280830281
3.801318681318681
3.5856410256410256
3.422759462759463
3.3497435897435897
3.252014652014652
3.014993894993895
2.69934065934066
2.2646153846153845
1.883809523809524
1.6557753357753358
1.4850305250305251
1.3985347985347985
1.3670818070818072
1.3457387057387058
1.3277655677655678
1.3165323565323566
1.3154090354090353
1.310915750915751
1.3052991452991454
1.303052503052503
1.3142857142857145
1.31990231990232
1.3176556776556776
1.3210256410256411
1.3266422466422467
1.3277655677655678
1.3165323565323566
1.3154090354090353
1.3165323565323566
1.312039072039072
1.2951892551892552
1.2828327228327228
1.2749694749694749
1.2547496947496948
1.2367765567765567
1.2244200244200245
1.2165567765567766
1.201953601953602
1.1952136752136753
1.192967032967033
1.1952136752136753
1.1952136752136753
1.2075702075702075
1.2356532356532357
1.264859584859585
1.2895726495726496
1.3277655677655678
1.3873015873015873
1.4457142857142855
1.4962637362637363
1.5647863247863247
1.6333089133089134
1.702954822954823
1.7658608058608058
1.8287667887667889
1.891672771672772
1.947838827838828
1.986031746031746
2.015238095238096
2.051184371184372
2.0803907203907204
2.1028571428571428
2.1185836385836385
2.135433455433456
2.1444200244200244
2.147789987789988
2.1534065934065936
2.151159951159951
2.1578998778998777
2.161269841269841
2.161269841269841
2.165763125763126
2.16014652014652
2.16014652014652
2.16014652014652
2.163516483516484
2.1623931623931623
2.165763125763126
2.1646398046398048
2.161269841269841
2.1567765567765567
2.161269841269841
2.16014652014652
2.155653235653236
2.1578998778998777
2.159023199023199
2.161269841269841
2.161269841269841
2.1578998778998777
2.1545299145299146
2.1545299145299146
2.1534065934065936
2.15003663003663
2.1545299145299146
2.152283272283272
2.1432967032967034
2.145543345543345
2.148913308913309
2.1545299145299146
2.148913308913309
2.148913308913309
2.1421733821733824
2.138803418803419
2.145543345543345
2.1466666666666665
2.141050061050061
2.138803418803419
2.1309401709401707
2.13992673992674
2.148913308913309
2.1444200244200244
2.141050061050061
2.138803418803419
2.137680097680098
2.1365567765567763
2.133186813186813
2.13992673992674
2.145543345543345
2.138803418803419
2.1365567765567763
2.132063492063492
2.1286935286935287
2.121953601953602
2.123076923076923
2.133186813186813
2.137680097680098
2.1298168498168497
2.1309401709401707
2.132063492063492
2.132063492063492
2.124200244200244
2.121953601953602
2.120830280830281
2.123076923076923
2.112967032967033
2.1185836385836385
2.111843711843712
2.1095970695970694
2.1095970695970694
2.1095970695970694
2.1084737484737484
2.1051037851037853
2.1028571428571428
2.1095970695970694
2.112967032967033
2.1051037851037853
2.097240537240537
2.1017338217338217
2.1062271062271063
2.107350427350428
2.107350427350428
2.1051037851037853
2.1051037851037853
2.1028571428571428
2.09948717948718
2.1051037851037853
2.1084737484737484
2.103980463980464
2.1017338217338217
2.09948717948718
2.097240537240537
2.1017338217338217
2.1006105006105007
2.1028571428571428
2.1062271062271063
2.1017338217338217
2.1051037851037853
2.1028571428571428
2.09948717948718
2.097240537240537
2.1051037851037853
2.107350427350428
2.1084737484737484
2.1095970695970694
2.1163369963369965
2.1309401709401707
2.1545299145299146
2.185982905982906
2.19946275946276
2.2252991452991453
2.2983150183150185
2.31965811965812
2.3106715506715507
2.2713553113553115
2.212942612942613
2.1534065934065936
2.117460317460317
2.1051037851037853
2.0882539682539685
2.06017094017094
2.02984126984127
2.0141147741147742
2.0163614163614163
2.035457875457876
2.0365811965811966
2.02984126984127
2.030964590964591
2.0365811965811966
2.043321123321124
2.0444444444444443
2.0444444444444443
2.048937728937729
2.0792673992674
2.1927228327228327
2.426373626373626
2.763369963369964
3.121709401709402
3.313797313797314
3.05992673992674
2.501636141636141
1.9006593406593408
1.5164835164835164
1.5602930402930404
1.822026862026862
2.023101343101343
2.068034188034188
2.069157509157509
2.077020757020757
2.069157509157509
2.061294261294261
2.0624175824175826
2.0646642246642246
2.069157509157509
2.07028083028083
2.077020757020757
2.083760683760684
2.0826373626373624
2.086007326007326
2.0905006105006105
2.097240537240537
2.1051037851037853
2.110720390720391
2.117460317460317
2.123076923076923
2.135433455433456
2.151159951159951
2.1623931623931623
2.176996336996337
2.193846153846154
2.201709401709402
2.211819291819292
2.2230525030525032
2.238778998778999
2.258998778998779
2.27023199023199
2.28034188034188
2.303931623931624
2.324151404151404
2.3365079365079366
2.3443711843711843
2.3567277167277165
2.3702075702075702
2.376947496947497
2.374700854700855
2.3724542124542123
2.3702075702075702
2.34998778998779
2.3263980463980465
2.3028083028083026
2.267985347985348
2.228669108669109
2.1826129426129426
2.1421733821733824
2.1006105006105007
2.06017094017094
2.01973137973138
1.983785103785104
1.96019536019536
1.932112332112332
1.9006593406593408
1.883809523809524
1.8736996336996337
1.8613431013431008
1.8546031746031744
1.8523565323565323
1.8444932844932844
1.841123321123321
1.8388766788766788
1.84
1.843369963369964
1.8444932844932844
1.847863247863248
1.8568498168498169
1.87931623931624
1.9051526251526247
1.9422222222222223
1.9781684981684984
2.048937728937729
2.148913308913309
2.303931623931624
2.5241025641025643
2.7487667887667886
3.0105006105006105
3.3003174603174603
3.551941391941392
3.7114529914529912
3.803565323565324
3.8327716727716727
3.799072039072039
3.74964590964591
3.587887667887668
3.3643467643467644
3.2070818070818072
3.03970695970696
2.722930402930403
2.307301587301587
1.9197557997558
1.61982905982906
1.44009768009768
1.385054945054945
1.3715750915750915
1.3592185592185593
1.3468620268620268
1.3457387057387058
1.3412454212454212
1.3345054945054946
1.337875457875458
1.3536019536019537
1.3558485958485955
1.3637118437118436
1.3693284493284494
1.3693284493284494
1.376068376068376
1.385054945054945
1.3917948717948718
1.3929181929181929
1.3917948717948718
1.3906715506715506
1.394041514041514
1.394041514041514
1.3906715506715506
1.3805616605616606
1.3805616605616606
1.3794383394383394
1.3816849816849817
1.3816849816849817
1.3805616605616606
1.382808302808303
1.3917948717948718
1.4063980463980463
1.4254945054945054
1.4535775335775336
1.4816605616605616
1.5232234432234433
1.5704029304029303
1.6142124542124543
1.6602686202686203
1.7186813186813186
1.7647374847374848
1.8085470085470088
1.8523565323565323
1.891672771672772
1.9264957264957263
1.9500854700854704
1.9725518925518928
1.993894993894994
2.0084981684981686
2.018608058608059
2.0242246642246644
2.032087912087912
2.043321123321124
2.048937728937729
2.061294261294261
2.089377289377289
2.121953601953602
2.147789987789988
2.15003663003663
2.188229548229548
2.256752136752137
2.2814652014652013
2.2634920634920634
2.2264224664224663
2.1691330891330893
2.110720390720391
2.091623931623932
2.091623931623932
2.0747741147741148
2.02984126984127
1.9972649572649568
1.9804151404151404
1.9815384615384608
1.9983882783882785
2.011868131868132
2.0084981684981686
2.006251526251526
2.004004884004884
2.0107448107448107
2.0141147741147742
2.018608058608059
2.021978021978022
2.021978021978022
2.0287179487179485
2.032087912087912
2.03995115995116
2.03995115995116
2.034334554334554
2.041074481074481
2.0545543345543344
2.05006105006105
2.0523076923076924
2.059047619047619
2.0657875457875456
2.0714041514041512
2.069157509157509
2.0714041514041512
2.0747741147741148
2.084884004884005
2.0781440781440783
2.0792673992674
2.077020757020757
2.0815140415140414
2.086007326007326
2.091623931623932
2.087130647130647
2.089377289377289
2.1028571428571428
2.121953601953602
2.138803418803419
2.175873015873016
2.22979242979243
2.293821733821734
2.3443711843711843
2.412893772893773
2.565665445665445
2.7712332112332114
2.99028083028083
3.235164835164835
3.485665445665445
3.7215628815628814
3.818168498168498
3.896800976800977
3.940610500610501
3.946227106227106
3.85973137973138
3.6665201465201465
3.485665445665445
3.367716727716728
3.3115506715506715
3.144175824175824
2.8891819291819294
2.5488156288156287
2.1163369963369965
1.82989010989011
1.6220757020757022
1.4884004884004884
1.456947496947497
1.4389743589743589
1.4198778998778998
1.3996581196581197
1.3895482295482295
1.3895482295482295
1.394041514041514
1.3895482295482295
1.3884249084249085
1.385054945054945
1.3794383394383394
1.3783150183150183
1.3873015873015873
1.383931623931624
1.3783150183150183
1.3670818070818072
1.3558485958485955
1.356971916971917
1.3446153846153843
1.3176556776556776
1.303052503052503
1.2951892551892552
1.276092796092796
1.258119658119658
1.24014652014652
1.2289133089133089
1.2289133089133089
1.23003663003663
1.2367765567765567
1.2536263736263735
1.273846153846154
1.3019291819291818
1.3446153846153843
1.3951648351648351
1.4502075702075703
1.503003663003663
1.567032967032967
1.64004884004884
1.7198046398046398
1.784957264957265
1.85010989010989
1.914139194139194
1.9747985347985348
2.0163614163614163
2.057924297924298
2.089377289377289
2.1185836385836385
2.15003663003663
2.1702564102564104
2.175873015873016
2.1814896214896216
2.187106227106227
2.194969474969475
2.1904761904761907
2.189352869352869
2.1904761904761907
2.191599511599512
2.1904761904761907
2.183736263736264
2.183736263736264
2.187106227106227
2.187106227106227
2.178119658119658
2.173626373626373
2.176996336996337
2.174749694749695
2.174749694749695
2.178119658119658
2.1826129426129426
2.178119658119658
2.1725030525030524
2.1826129426129426
2.179242979242979
2.1702564102564104
2.1691330891330893
2.174749694749695
2.174749694749695
2.1691330891330893
2.1713797313797314
2.168009768009768
2.1691330891330893
2.166886446886447
2.178119658119658
2.1814896214896216
2.1691330891330893
2.163516483516484
2.1725030525030524
2.178119658119658
2.179242979242979
2.179242979242979
2.178119658119658
2.1814896214896216
2.1691330891330893
2.16014652014652
2.165763125763126
2.166886446886447
2.155653235653236
2.1534065934065936
2.1567765567765567
2.1567765567765567
2.16014652014652
2.16014652014652
2.173626373626373
2.193846153846154
2.228669108669109
2.2455189255189256
2.2488888888888887
2.28034188034188
2.346617826617827
2.376947496947497
2.361221001221001
2.31965811965812
2.2623687423687424
2.2073260073260075
2.175873015873016
2.1646398046398048
2.1421733821733824
2.1095970695970694
2.0781440781440783
2.06017094017094
2.063540903540904
2.0747741147741148
2.083760683760684
2.0815140415140414
2.0736507936507937
2.0803907203907204
2.0815140415140414
2.0781440781440783
2.0826373626373624
2.089377289377289
2.089377289377289
2.0882539682539685
2.096117216117216
2.097240537240537
2.097240537240537
2.096117216117216
2.111843711843712
2.1983394383394383
2.3814407814407814
2.6735042735042733
3.0228571428571427
3.28009768009768
3.135189255189255
2.542075702075702
1.8512332112332115
1.3726984126984128
1.2749694749694749
1.5243467643467643
1.8366300366300363
2.061294261294261
2.1421733821733824
2.1646398046398048
2.16014652014652
2.13992673992674
2.1309401709401707
2.138803418803419
2.155653235653236
2.1623931623931623
2.16014652014652
2.165763125763126
2.168009768009768
2.1691330891330893
2.1725030525030524
2.179242979242979
2.187106227106227
2.188229548229548
2.194969474969475
2.209572649572649
2.215189255189255
2.212942612942613
2.2241758241758243
2.241025641025641
2.2488888888888887
2.2522588522588523
2.267985347985348
2.28034188034188
2.303931623931624
2.321904761904762
2.343247863247864
2.3657142857142857
2.3836874236874235
2.4027838827838828
2.424126984126984
2.445470085470085
2.455579975579976
2.465689865689866
2.473553113553113
2.467936507936508
2.4567032967032967
2.4477167277167275
2.4297435897435897
2.4016605616605617
2.36009768009768
2.3174114774114773
2.275848595848596
2.2230525030525032
2.165763125763126
2.1185836385836385
2.0781440781440783
2.0388278388278387
1.9995115995115995
1.966935286935287
1.9343589743589744
1.913015873015873
1.893919413919414
1.886056166056166
1.8736996336996337
1.86021978021978
1.8512332112332115
1.8523565323565323
1.8512332112332115
1.8456166056166057
1.8377533577533576
1.85010989010989
1.8624664224664225
1.8647130647130647
1.8703296703296703
1.8826862026862028
1.8894261294261288
1.8905494505494504
1.8984126984126983
1.902905982905983
1.9051526251526247
1.9096459096459093
1.9163858363858364
1.9264957264957263
1.9444688644688648
1.9613186813186807
1.9815384615384608
2.007374847374847
2.0657875457875456
2.1432967032967034
2.2646153846153845
2.4185103785103785
2.5645421245421245
2.722930402930403
2.9206349206349205
3.172258852258852
3.4137728937728937
3.618217338217338
3.7687423687423687
3.858608058608058
3.858608058608058
3.7968253968253967
3.623833943833944
3.394676434676435
3.225054945054945
2.9734310134310133
2.5892551892551894
2.2219291819291818
1.9186324786324789
1.6557753357753358
1.476043956043956
1.401904761904762
1.3816849816849817
1.3726984126984128
1.3614652014652016
1.347985347985348
1.3401221001221002
1.3434920634920635
1.3513553113553114
1.3524786324786324
1.358095238095238
1.3726984126984128
1.3816849816849817
1.3805616605616606
1.382808302808303
1.3906715506715506
1.3929181929181929
1.3906715506715506
1.3929181929181929
1.3962881562881564
1.3906715506715506
1.3794383394383394
1.3704517704517705
1.3614652014652016
1.3536019536019537
1.3468620268620268
1.3491086691086691
1.3547252747252747
1.3468620268620268
1.3423687423687425
1.3547252747252747
1.3693284493284494
1.3873015873015873
1.4187545787545788
1.4535775335775336
1.4906471306471307
1.5434432234432234
1.5984859584859583
1.659145299145299
1.7242979242979244
1.775970695970696
1.823150183150183
1.8927960927960927
1.9658119658119653
2.0275946275946275
2.063540903540904
2.098363858363858
2.188229548229548
2.2455189255189256
2.238778998778999
2.2106959706959706
2.165763125763126
2.107350427350428
2.0725274725274727
2.061294261294261
2.0556776556776555
2.0174847374847373
1.975921855921856
1.957948717948718
1.959072039072039
1.964688644688645
1.9703052503052505
1.968058608058608
1.968058608058608
1.9714285714285715
1.9781684981684984
1.989401709401709
1.9905250305250304
1.9972649572649568
2.006251526251526
2.0163614163614163
2.0129914529914528
2.015238095238096
2.025347985347985
2.0264713064713065
2.0275946275946275
2.035457875457876
2.0388278388278387
2.041074481074481
2.0421978021978022
2.0444444444444443
2.05006105006105
2.0545543345543344
2.0556776556776555
2.059047619047619
2.069157509157509
2.0725274725274727
2.069157509157509
2.068034188034188
2.0736507936507937
2.0714041514041512
2.0736507936507937
2.077020757020757
2.0803907203907204
2.0747741147741148
2.077020757020757
2.091623931623932
2.0882539682539685
2.0826373626373624
2.086007326007326
2.0927472527472526
2.093870573870574
2.0905006105006105
2.0905006105006105
2.0826373626373624
2.0803907203907204
2.0792673992674
2.0826373626373624
2.083760683760684
2.075897435897436
2.0826373626373624
2.086007326007326
2.086007326007326
2.087130647130647
2.0826373626373624
2.084884004884005
2.086007326007326
2.0803907203907204
2.086007326007326
2.094993894993895
2.091623931623932
2.0826373626373624
2.0826373626373624
2.087130647130647
2.086007326007326
2.087130647130647
2.094993894993895
2.096117216117216
2.0905006105006105
2.083760683760684
2.091623931623932
2.096117216117216
2.091623931623932
2.091623931623932
2.093870573870574
2.1006105006105007
2.107350427350428
2.1028571428571428
2.1028571428571428
2.1017338217338217
2.1017338217338217
2.1028571428571428
2.1051037851037853
2.111843711843712
2.121953601953602
2.1286935286935287
2.1421733821733824
2.188229548229548
2.241025641025641
2.300561660561661
2.3454945054945053
2.417387057387057
2.57015873015873
2.776849816849817
3.0105006105006105
3.2722344322344323
3.549694749694749
3.787838827838828
3.9271306471306473
4.004639804639805
4.054065934065934
4.066422466422466
3.961953601953602
3.751892551892552
3.568791208791209
3.463199023199023
3.41040293040293
3.213821733821734
2.924004884004884
2.5364590964590965
2.083760683760684
1.8018070818070813
1.6085958485958487
1.483907203907204
1.4389743589743589
1.4153846153846157
1.4052747252747253
1.3917948717948718
1.374945054945055
1.3603418803418803
1.365958485958486
1.3704517704517705
1.3704517704517705
1.3670818070818072
1.3704517704517705
1.3704517704517705
1.3670818070818072
1.3603418803418803
1.3513553113553114
1.3536019536019537
1.3434920634920635
1.3356288156288156
1.3333821733821734
1.3232722832722832
1.2974358974358975
1.2693528693528693
1.2603663003663004
1.246886446886447
1.2277899877899878
1.2188034188034187
1.2165567765567766
1.2154334554334554
1.2143101343101343
1.2221733821733822
1.2345299145299145
1.2547496947496948
1.2794627594627594
1.3243956043956044
1.3816849816849817
1.4445909645909647
1.503003663003663
1.5793894993894997
1.6557753357753358
1.7321611721611725
1.8074236874236875
1.871452991452992
1.922002442002442
1.9736752136752136
2.033211233211233
2.0736507936507937
2.107350427350428
2.133186813186813
2.151159951159951
2.168009768009768
2.1803663003663005
2.1826129426129426
2.1814896214896216
2.189352869352869
2.191599511599512
2.187106227106227
2.1848595848595846
2.185982905982906
2.185982905982906
2.1848595848595846
2.1904761904761907
2.206202686202686
2.2252991452991453
2.265738705738706
2.2893284493284494
2.2814652014652013
2.3162881562881563
2.391550671550672
2.4061538461538463
2.376947496947497
2.3365079365079366
2.283711843711844
2.237655677655677
2.205079365079365
2.1927228327228327
2.173626373626373
2.1264468864468866
2.086007326007326
2.075897435897436
2.0905006105006105
2.09948717948718
2.1028571428571428
2.09948717948718
2.1006105006105007
2.1006105006105007
2.1006105006105007
2.09948717948718
2.1006105006105007
2.09948717948718
2.103980463980464
2.112967032967033
2.1185836385836385
2.1185836385836385
2.1152136752136754
2.1163369963369965
2.1163369963369965
2.123076923076923
2.117460317460317
2.123076923076923
2.125323565323565
2.124200244200244
2.1152136752136754
2.1185836385836385
2.123076923076923
2.1264468864468866
2.123076923076923
2.1264468864468866
2.127570207570208
2.1185836385836385
2.123076923076923
2.1286935286935287
2.125323565323565
2.125323565323565
2.125323565323565
2.123076923076923
2.124200244200244
2.1197069597069595
2.1163369963369965
2.1163369963369965
2.110720390720391
2.1084737484737484
2.1062271062271063
2.110720390720391
2.1095970695970694
2.107350427350428
2.114090354090354
2.1152136752136754
2.1084737484737484
2.111843711843712
2.112967032967033
2.1062271062271063
2.1006105006105007
2.1006105006105007
2.1062271062271063
2.114090354090354
2.112967032967033
2.111843711843712
2.1163369963369965
2.114090354090354
2.1051037851037853
2.112967032967033
2.1421733821733824
2.2252991452991453
2.440976800976801
2.779096459096459
3.141929181929182
3.316043956043956
2.9947741147741147
2.3286446886446885
1.6928449328449329
1.337875457875458
1.3783150183150183
1.6512820512820512
1.9388522588522588
2.1163369963369965
2.1725030525030524
2.175873015873016
2.159023199023199
2.1421733821733824
2.137680097680098
2.1432967032967034
2.151159951159951
2.1578998778998777
2.159023199023199
2.166886446886447
2.168009768009768
2.173626373626373
2.179242979242979
2.188229548229548
2.1927228327228327
2.1972161172161173
2.2073260073260075
2.21968253968254
2.2185592185592187
2.2241758241758243
2.241025641025641
2.25001221001221
2.2601221001221
2.278095238095238
2.2983150183150185
2.3106715506715507
2.324151404151404
2.3376312576312577
2.358974358974359
2.3836874236874235
2.3904273504273506
2.4027838827838828
2.4286202686202687
2.440976800976801
2.44996336996337
2.4567032967032967
2.467936507936508
2.455579975579976
2.438730158730159
2.431990231990232
2.423003663003663
2.3904273504273506
2.348864468864469
2.311794871794872
2.2623687423687424
2.2073260073260075
2.151159951159951
2.1017338217338217
2.056800976800977
2.0163614163614163
1.984908424908425
1.9444688644688648
1.9163858363858364
1.886056166056166
1.8590964590964592
1.855726495726496
1.8546031746031744
1.8467399267399267
1.84
1.8343833943833945
1.82989010989011
1.827643467643468
1.8265201465201464
1.8343833943833945
1.8444932844932844
1.847863247863248
1.857973137973138
1.8647130647130647
1.866959706959707
1.874822954822955
1.8849328449328449
1.8905494505494504
1.8972893772893773
1.9062759462759464
1.9287423687423688
1.9444688644688648
1.959072039072039
1.9792918192918192
2.03995115995116
2.127570207570208
2.2342857142857144
2.3825641025641024
2.531965811965812
2.679120879120879
2.8667155067155066
3.1104761904761906
3.363223443223444
3.586764346764346
3.748522588522589
3.8574847374847376
3.86984126984127
3.812551892551893
3.651916971916972
3.4171428571428573
3.2441514041514043
3.031843711843712
2.685860805860806
2.323028083028083
2.0163614163614163
1.8152869352869352
1.6872283272283273
1.6164590964590964
1.5602930402930404
1.5108669108669108
1.4457142857142855
1.3951648351648351
1.3670818070818072
1.3637118437118436
1.3423687423687425
1.304175824175824
1.2772161172161172
1.276092796092796
1.2906959706959706
1.3052991452991454
1.308669108669109
1.3176556776556776
1.3243956043956044
1.3266422466422467
1.3277655677655678
1.3221489621489622
1.3232722832722832
1.3176556776556776
1.308669108669109
1.3064224664224664
1.303052503052503
1.2985592185592183
1.2895726495726496
1.2862026862026863
1.2940659340659342
1.291819291819292
1.3008058608058608
1.3288888888888888
1.3625885225885226
1.3951648351648351
1.4277411477411477
1.4794139194139193
1.5367032967032968
1.592869352869353
1.6501587301587302
1.7074481074481074
1.7636141636141636
1.8152869352869352
1.871452991452992
1.915262515262516
1.955702075702076
1.986031746031746
2.0006349206349205
2.021978021978022
2.0421978021978022
2.056800976800977
2.0545543345543344
2.06017094017094
2.06017094017094
2.057924297924298
2.059047619047619
2.061294261294261
2.0646642246642246
2.066910866910867
2.069157509157509
2.07028083028083
2.07028083028083
2.069157509157509
2.0747741147741148
2.07028083028083
2.0736507936507937
2.0736507936507937
2.0815140415140414
2.086007326007326
2.0826373626373624
2.0781440781440783
2.0882539682539685
2.097240537240537
2.0927472527472526
2.0882539682539685
2.093870573870574
2.098363858363858
2.097240537240537
2.09948717948718
2.1028571428571428
2.09948717948718
2.094993894993895
2.094993894993895
2.098363858363858
2.1006105006105007
2.093870573870574
2.097240537240537
2.1062271062271063
2.1028571428571428
2.1006105006105007
2.1051037851037853
2.114090354090354
2.111843711843712
2.1062271062271063
2.1062271062271063
2.1095970695970694
2.110720390720391
2.114090354090354
2.114090354090354
2.1152136752136754
2.1084737484737484
2.1095970695970694
2.112967032967033
2.110720390720391
2.1062271062271063
2.1028571428571428
2.103980463980464
2.107350427350428
2.107350427350428
2.1051037851037853
2.112967032967033
2.1152136752136754
2.111843711843712
2.1062271062271063
2.110720390720391
2.110720390720391
2.110720390720391
2.110720390720391
2.111843711843712
2.1051037851037853
2.103980463980464
2.1095970695970694
2.114090354090354
2.1095970695970694
2.1084737484737484
2.1152136752136754
2.1197069597069595
2.1163369963369965
2.110720390720391
2.112967032967033
2.114090354090354
2.112967032967033
2.1163369963369965
2.121953601953602
2.121953601953602
2.124200244200244
2.112967032967033
2.114090354090354
2.1163369963369965
2.120830280830281
2.112967032967033
2.114090354090354
2.1185836385836385
2.1185836385836385
2.121953601953602
2.123076923076923
2.1264468864468866
2.127570207570208
2.1421733821733824
2.1803663003663005
2.2354090354090355
2.293821733821734
2.343247863247864
2.4084004884004884
2.5499389499389498
2.754383394383394
2.98017094017094
3.2463980463980464
3.5305982905982907
3.7743589743589743
3.914774114774114
3.9945299145299145
4.0563125763125765
4.067545787545788
3.987789987789988
3.80019536019536
3.619340659340659
3.526105006105006
