I,II,III,aVR,aVL,aVF,v1,v2,v3,v4,v5,v6
-0.0004644447619047,-0.0003155435897435,-0.0003071746031746,0.000387902075702,-7.902175824175796e-05,-0.0003100302319902,-0.0006493465201465,-0.0006295634920634,-0.0005777131868131,-0.0004017575091575,-0.0003620699633699,-0.0002775538461538
-0.0004765872771672,-0.0003367811965811,-0.0003162984126984,0.0004060839072039,-7.902175824175796e-05,-0.0003252279120879,-0.0006493465201465,-0.0006538936507936,-0.0005928363858363,-0.0004168625152625,-0.0003741393162393,-0.0002926405372405
-0.0004826585347985,-0.0003549848595848,-0.0003315047619047,0.0004182051282051,-7.598224664224636e-05,-0.0003434651282051,-0.0006523951159951,-0.0006721412698412,-0.0006079595848595,-0.0004259255189255,-0.0003831913308913,-0.0003077272283272
-0.0004856941636141,-0.0003762224664224,-0.0003527936507936,0.0004303263492063,-6.686371184371155e-05,-0.0003647418803418,-0.0006584923076923,-0.0006934301587301,-0.0006230827838827,-0.0004380095238095,-0.000398278021978,-0.0003258312576312
-0.0004917654212454,-0.000400494017094,-0.0003740825396825,0.0004454778754578,-5.774517704517676e-05,-0.0003860186324786,-0.0006645894993894,-0.0007116777777777,-0.0006382059829059,-0.0004531145299145,-0.000416382051282,-0.0003439352869352
-0.0005008723076923,-0.0004186976800976,-0.0003740825396825,0.000457599096459,-6.382420024419996e-05,-0.0003951372405372,-0.0006615409035409,-0.0007299253968253,-0.0006472799023199,-0.0004651985347985,-0.0004314687423687,-0.0003590219780219
-0.0005099791941391,-0.0004308334554334,-0.0003771238095238,0.0004697203174603,-6.686371184371155e-05,-0.0004042558485958,-0.0006584923076923,-0.0007420904761904,-0.0006563538217338,-0.0004712405372405,-0.0004375034188034,-0.0003680739926739
-0.0005130148229548,-0.0004460031746031,-0.0003862476190476,0.0004788112332112,-6.382420024419996e-05,-0.0004164139926739,-0.0006554437118437,-0.000748173015873,-0.0006624031013431,-0.0004772825396825,-0.000443538095238,-0.0003801433455433
-0.0005099791941391,-0.000452071062271,-0.0003953714285714,0.0004788112332112,-5.774517704517676e-05,-0.000422493064713,-0.0006584923076923,-0.000760338095238,-0.000671477020757,-0.0004863455433455,-0.0004556074481074,-0.0003891953601953
-0.0005160504517704,-0.0004611728937728,-0.0003984126984126,0.0004879021489621,-5.774517704517676e-05,-0.0004285721367521,-0.0006584923076923,-0.0007664206349206,-0.0006805509401709,-0.0004954085470085,-0.0004646594627594,-0.0004012647130647
-0.0005251573382173,-0.0004733086691086,-0.0004044952380952,0.000496993064713,-6.078468864468836e-05,-0.0004376907448107,-0.0006554437118437,-0.0007664206349206,-0.0006805509401709,-0.0004984295482295,-0.0004676768009768,-0.000404282051282
-0.0005281929670329,-0.0004854444444444,-0.0004166603174603,0.0005060839804639,-5.470566544566516e-05,-0.0004498488888888,-0.0006523951159951,-0.0007694619047619,-0.0006805509401709,-0.0004954085470085,-0.0004676768009768,-0.000404282051282
-0.0005221217094017,-0.0004915123321123,-0.0004288253968253,0.0005060839804639,-4.558713064713037e-05,-0.0004589674969474,-0.0006554437118437,-0.0007725031746031,-0.0006866002197802,-0.0005014505494505,-0.0004706941391941,-0.000404282051282
-0.0005251573382173,-0.0004915123321123,-0.0004257841269841,0.0005060839804639,-4.862664224664196e-05,-0.0004589674969474,-0.0006554437118437,-0.0007755444444444,-0.0006866002197802,-0.0005014505494505,-0.0004706941391941,-0.000404282051282
-0.0005433711111111,-0.0004915123321123,-0.0004075365079365,0.0005151748962148,-6.686371184371155e-05,-0.0004498488888888,-0.0006493465201465,-0.0007725031746031,-0.0006835755799755,-0.0005014505494505,-0.0004706941391941,-0.0004012647130647
-0.0005403354822954,-0.0004915123321123,-0.0004105777777777,0.0005151748962148,-6.382420024419996e-05,-0.0004498488888888,-0.0006462979242979,-0.0007694619047619,-0.0006866002197802,-0.0005074925518925,-0.0004767288156288,-0.000404282051282
-0.0005372998534798,-0.0005006141636141,-0.0004227428571428,0.0005182052014652,-5.774517704517676e-05,-0.000462007032967,-0.0006493465201465,-0.0007725031746031,-0.0006926494993894,-0.0005105135531135,-0.0004827634920634,-0.000413334065934
-0.0005342642246642,-0.0005036481074481,-0.0004257841269841,0.0005182052014652,-5.470566544566516e-05,-0.0004650465689865,-0.0006554437118437,-0.0007725031746031,-0.0006956741391941,-0.0005135345543345,-0.0004857808302808,-0.0004163514041514
-0.0005403354822954,-0.000506682051282,-0.0004227428571428,0.0005212355067155,-5.774517704517676e-05,-0.0004650465689865,-0.0006493465201465,-0.0007694619047619,-0.0006926494993894,-0.0005135345543345,-0.0004827634920634,-0.0004193687423687
-0.0005464067399267,-0.0005127499389499,-0.0004197015873015,0.0005272961172161,-6.382420024419996e-05,-0.0004650465689865,-0.0006432493284493,-0.0007664206349206,-0.0006866002197802,-0.0005105135531135,-0.0004827634920634,-0.0004163514041514
-0.0005524779975579,-0.0005127499389499,-0.0004197015873015,0.0005303264224664,-6.686371184371155e-05,-0.0004650465689865,-0.0006402007326007,-0.0007633793650793,-0.0006866002197802,-0.0005135345543345,-0.0004857808302808,-0.0004193687423687
-0.0005464067399267,-0.0005127499389499,-0.0004257841269841,0.0005272961172161,-6.078468864468836e-05,-0.0004680861050061,-0.0006402007326007,-0.000760338095238,-0.0006896248595848,-0.0005135345543345,-0.0004887981684981,-0.000422386080586
-0.0005464067399267,-0.0005157838827838,-0.0004288253968253,0.0005303264224664,-5.774517704517676e-05,-0.0004711256410256,-0.0006432493284493,-0.0007572968253968,-0.0006896248595848,-0.0005135345543345,-0.0004887981684981,-0.000422386080586
-0.0005433711111111,-0.0005218517704517,-0.0004349079365079,0.0005303264224664,-5.470566544566516e-05,-0.0004772047130647,-0.0006432493284493,-0.0007572968253968,-0.0006896248595848,-0.0005165555555555,-0.0004918155067155,-0.000422386080586
-0.0005433711111111,-0.0005218517704517,-0.0004349079365079,0.0005303264224664,-5.470566544566516e-05,-0.0004772047130647,-0.0006402007326007,-0.0007572968253968,-0.0006926494993894,-0.0005195765567765,-0.0004948328449328,-0.0004284207570207
-0.0005524779975579,-0.0005218517704517,-0.0004257841269841,0.000536387032967,-6.382420024419996e-05,-0.0004741651770451,-0.0006371521367521,-0.0007542555555555,-0.0006926494993894,-0.0005225975579975,-0.0004978501831501,-0.000431438095238
-0.0005555136263736,-0.0005157838827838,-0.0004197015873015,0.0005333567277167,-6.686371184371155e-05,-0.0004680861050061,-0.0006371521367521,-0.000748173015873,-0.0006926494993894,-0.0005195765567765,-0.0004948328449328,-0.0004254034188034
-0.0005524779975579,-0.0005127499389499,-0.0004166603174603,0.0005303264224664,-6.686371184371155e-05,-0.0004650465689865,-0.0006371521367521,-0.0007451317460317,-0.0006896248595848,-0.0005165555555555,-0.0004918155067155,-0.0004254034188034
-0.0005464067399267,-0.0005188178266178,-0.0004257841269841,0.0005303264224664,-6.078468864468836e-05,-0.0004711256410256,-0.0006371521367521,-0.0007420904761904,-0.0006866002197802,-0.0005195765567765,-0.0004978501831501,-0.0004284207570207
-0.0005403354822954,-0.0005218517704517,-0.0004349079365079,0.0005303264224664,-5.166615384615356e-05,-0.0004772047130647,-0.0006371521367521,-0.0007390492063492,-0.0006866002197802,-0.0005225975579975,-0.0005008675213675,-0.0004344554334554
-0.0005433711111111,-0.0005188178266178,-0.0004349079365079,0.0005303264224664,-5.470566544566516e-05,-0.0004772047130647,-0.0006310549450549,-0.0007360079365079,-0.0006835755799755,-0.0005165555555555,-0.0004978501831501,-0.0004344554334554
-0.0005342642246642,-0.0005218517704517,-0.0004440317460317,0.0005272961172161,-4.558713064713037e-05,-0.0004832837851037,-0.0006341035409035,-0.0007329666666666,-0.0006835755799755,-0.0005195765567765,-0.0004978501831501,-0.0004404901098901
-0.0005372998534798,-0.0005188178266178,-0.0004379492063492,0.0005272961172161,-4.862664224664196e-05,-0.0004772047130647,-0.0006371521367521,-0.0007299253968253,-0.0006805509401709,-0.0005135345543345,-0.0004948328449328,-0.000431438095238
-0.0005464067399267,-0.000506682051282,-0.0004166603174603,0.0005242658119658,-6.382420024419996e-05,-0.000462007032967,-0.0006371521367521,-0.0007268841269841,-0.0006775263003663,-0.0005074925518925,-0.0004827634920634,-0.0004193687423687
-0.0005555136263736,-0.0005036481074481,-0.0004044952380952,0.0005272961172161,-7.598224664224636e-05,-0.0004528884249084,-0.0006371521367521,-0.0007238428571428,-0.0006745016605616,-0.0005074925518925,-0.0004827634920634,-0.000413334065934
-0.0005555136263736,-0.0004975802197802,-0.0004044952380952,0.0005242658119658,-7.598224664224636e-05,-0.0004498488888888,-0.0006402007326007,-0.0007238428571428,-0.000671477020757,-0.0005044715506715,-0.0004827634920634,-0.0004163514041514
-0.0005433711111111,-0.0004945462759462,-0.000413619047619,0.0005182052014652,-6.382420024419996e-05,-0.0004528884249084,-0.0006432493284493,-0.0007268841269841,-0.0006684523809523,-0.0005044715506715,-0.0004797461538461,-0.0004163514041514
-0.0005403354822954,-0.0004915123321123,-0.000413619047619,0.0005151748962148,-6.382420024419996e-05,-0.0004528884249084,-0.0006462979242979,-0.0007268841269841,-0.0006684523809523,-0.0005014505494505,-0.0004767288156288,-0.000413334065934
-0.0005403354822954,-0.0004884783882783,-0.0004044952380952,0.0005121445909645,-6.686371184371155e-05,-0.0004468093528693,-0.0006493465201465,-0.0007238428571428,-0.0006654277411477,-0.0004984295482295,-0.0004767288156288,-0.000413334065934
-0.0005403354822954,-0.0004854444444444,-0.0004044952380952,0.0005121445909645,-6.686371184371155e-05,-0.0004437698168498,-0.0006523951159951,-0.0007268841269841,-0.0006654277411477,-0.0005014505494505,-0.0004797461538461,-0.0004193687423687
-0.0005433711111111,-0.0004824105006105,-0.0004014539682539,0.0005121445909645,-6.990322344322315e-05,-0.0004407302808302,-0.0006554437118437,-0.0007299253968253,-0.0006684523809523,-0.0005044715506715,-0.0004827634920634,-0.000422386080586
-0.0005342642246642,-0.0004854444444444,-0.0004075365079365,0.0005091142857142,-6.382420024419996e-05,-0.0004468093528693,-0.0006584923076923,-0.0007299253968253,-0.0006654277411477,-0.0005044715506715,-0.0004857808302808,-0.0004254034188034
-0.0005221217094017,-0.0004824105006105,-0.0004197015873015,0.0005000233699633,-5.166615384615356e-05,-0.0004498488888888,-0.0006645894993894,-0.0007268841269841,-0.0006654277411477,-0.0004984295482295,-0.0004797461538461,-0.0004254034188034
-0.0005251573382173,-0.0004793765567765,-0.0004105777777777,0.0005000233699633,-5.774517704517676e-05,-0.0004437698168498,-0.0006645894993894,-0.0007268841269841,-0.0006624031013431,-0.0004954085470085,-0.0004706941391941,-0.0004193687423687
-0.0005372998534798,-0.0004733086691086,-0.0003953714285714,0.0005030536752136,-6.990322344322315e-05,-0.0004346512087912,-0.0006615409035409,-0.0007238428571428,-0.0006593784615384,-0.0004863455433455,-0.0004646594627594,-0.0004103167277167
-0.0005433711111111,-0.0004702747252747,-0.0003832063492063,0.0005060839804639,-7.902175824175796e-05,-0.0004255326007326,-0.0006554437118437,-0.0007208015873015,-0.0006533291819291,-0.0004803035409035,-0.0004586247863247,-0.0004012647130647
-0.0005524779975579,-0.0004733086691086,-0.0003771238095238,0.0005121445909645,-8.814029304029276e-05,-0.0004255326007326,-0.0006523951159951,-0.0007238428571428,-0.0006503045421245,-0.0004772825396825,-0.0004556074481074,-0.0003982473748473
-0.0005524779975579,-0.0004672407814407,-0.0003771238095238,0.0005091142857142,-8.814029304029276e-05,-0.000422493064713,-0.0006584923076923,-0.0007299253968253,-0.0006533291819291,-0.0004772825396825,-0.0004525901098901,-0.0003982473748473
-0.0005555136263736,-0.0004672407814407,-0.0003679999999999,0.0005091142857142,-9.421931623931596e-05,-0.0004164139926739,-0.0006645894993894,-0.0007299253968253,-0.0006503045421245,-0.0004742615384615,-0.0004465554334554,-0.0003922126984126
-0.0005585492551892,-0.0004672407814407,-0.0003679999999999,0.0005121445909645,-9.421931623931596e-05,-0.0004164139926739,-0.0006615409035409,-0.0007268841269841,-0.0006472799023199,-0.0004712405372405,-0.0004465554334554,-0.0003891953601953
-0.0005372998534798,-0.0004763426129426,-0.0003984126984126,0.0005060839804639,-6.990322344322315e-05,-0.0004376907448107,-0.000667638095238,-0.0007360079365079,-0.0006563538217338,-0.0004803035409035,-0.0004556074481074,-0.0004012647130647
-0.0005281929670329,-0.0004793765567765,-0.0004105777777777,0.0005030536752136,-5.774517704517676e-05,-0.0004437698168498,-0.0006706866910866,-0.0007420904761904,-0.0006624031013431,-0.0004863455433455,-0.0004616421245421,-0.0004103167277167
-0.0005524779975579,-0.0004733086691086,-0.000380165079365,0.0005121445909645,-8.510078144078116e-05,-0.0004255326007326,-0.000667638095238,-0.0007360079365079,-0.0006563538217338,-0.0004772825396825,-0.0004525901098901,-0.0003982473748473
-0.0005585492551892,-0.0004702747252747,-0.0003679999999999,0.0005121445909645,-9.421931623931596e-05,-0.0004194535286935,-0.000667638095238,-0.0007360079365079,-0.0006533291819291,-0.0004742615384615,-0.0004465554334554,-0.0003922126984126
-0.0005433711111111,-0.0004733086691086,-0.0003862476190476,0.0005060839804639,-7.902175824175796e-05,-0.0004285721367521,-0.0006706866910866,-0.0007390492063492,-0.0006593784615384,-0.0004833245421245,-0.0004556074481074,-0.000404282051282
-0.0005433711111111,-0.0004763426129426,-0.0003892888888888,0.0005091142857142,-7.598224664224636e-05,-0.0004316116727716,-0.000667638095238,-0.0007420904761904,-0.0006624031013431,-0.0004863455433455,-0.0004586247863247,-0.0004072993894993
-0.0005433711111111,-0.0004702747252747,-0.0003832063492063,0.0005060839804639,-7.902175824175796e-05,-0.0004255326007326,-0.0006706866910866,-0.0007420904761904,-0.0006654277411477,-0.0004893665445665,-0.0004586247863247,-0.000404282051282
-0.0005464067399267,-0.0004702747252747,-0.0003832063492063,0.0005060839804639,-8.206126984126955e-05,-0.0004255326007326,-0.0006737352869352,-0.000748173015873,-0.0006684523809523,-0.0004833245421245,-0.0004556074481074,-0.000404282051282
-0.0005464067399267,-0.0004763426129426,-0.0003923301587301,0.0005091142857142,-7.598224664224636e-05,-0.0004346512087912,-0.0006737352869352,-0.0007512142857142,-0.0006684523809523,-0.0004863455433455,-0.0004586247863247,-0.0004072993894993
-0.0005433711111111,-0.0004824105006105,-0.0003984126984126,0.0005121445909645,-7.294273504273476e-05,-0.0004407302808302,-0.0006706866910866,-0.000748173015873,-0.0006684523809523,-0.0004863455433455,-0.0004586247863247,-0.0004072993894993
-0.0005403354822954,-0.0004824105006105,-0.0003953714285714,0.0005091142857142,-7.294273504273476e-05,-0.0004376907448107,-0.0006706866910866,-0.0007512142857142,-0.0006745016605616,-0.0004893665445665,-0.0004586247863247,-0.0004072993894993
-0.0005403354822954,-0.0004733086691086,-0.0003862476190476,0.0005060839804639,-7.598224664224636e-05,-0.0004285721367521,-0.0006798324786324,-0.0007572968253968,-0.0006805509401709,-0.0004893665445665,-0.0004556074481074,-0.000404282051282
-0.0005403354822954,-0.0004702747252747,-0.0003892888888888,0.0005030536752136,-7.598224664224636e-05,-0.0004285721367521,-0.000682881074481,-0.000760338095238,-0.0006835755799755,-0.0004923875457875,-0.0004586247863247,-0.000413334065934
-0.0005372998534798,-0.0004793765567765,-0.0003984126984126,0.0005060839804639,-6.990322344322315e-05,-0.0004376907448107,-0.000682881074481,-0.000760338095238,-0.0006835755799755,-0.0004954085470085,-0.0004676768009768,-0.0004193687423687
-0.0005433711111111,-0.0004945462759462,-0.0004075365079365,0.0005182052014652,-6.686371184371155e-05,-0.0004498488888888,-0.0006798324786324,-0.0007572968253968,-0.0006835755799755,-0.0004954085470085,-0.0004676768009768,-0.0004193687423687
-0.0005555136263736,-0.0004975802197802,-0.0004014539682539,0.0005242658119658,-7.598224664224636e-05,-0.0004498488888888,-0.0006706866910866,-0.0007542555555555,-0.0006745016605616,-0.0004893665445665,-0.0004616421245421,-0.0004103167277167
-0.0005555136263736,-0.0004884783882783,-0.0003923301587301,0.0005212355067155,-8.206126984126955e-05,-0.0004407302808302,-0.0006706866910866,-0.0007542555555555,-0.0006745016605616,-0.0004863455433455,-0.0004616421245421,-0.000404282051282
-0.0005494423687423,-0.0004884783882783,-0.0003953714285714,0.0005182052014652,-7.598224664224636e-05,-0.0004407302808302,-0.0006737352869352,-0.0007572968253968,-0.0006745016605616,-0.0004893665445665,-0.0004616421245421,-0.0004072993894993
-0.0005433711111111,-0.0004975802197802,-0.0004105777777777,0.0005182052014652,-6.686371184371155e-05,-0.0004528884249084,-0.0006737352869352,-0.0007572968253968,-0.0006835755799755,-0.0004984295482295,-0.0004676768009768,-0.0004193687423687
-0.0005555136263736,-0.000506682051282,-0.0004075365079365,0.0005303264224664,-7.294273504273476e-05,-0.0004559279609279,-0.0006737352869352,-0.0007572968253968,-0.0006866002197802,-0.0004984295482295,-0.0004676768009768,-0.000422386080586
-0.0005706917704517,-0.0005006141636141,-0.0003862476190476,0.0005333567277167,-9.117980463980436e-05,-0.0004437698168498,-0.000667638095238,-0.0007542555555555,-0.0006805509401709,-0.0004923875457875,-0.0004616421245421,-0.0004103167277167
-0.0005646205128205,-0.0004854444444444,-0.000380165079365,0.0005242658119658,-9.117980463980436e-05,-0.0004316116727716,-0.0006706866910866,-0.000760338095238,-0.0006805509401709,-0.0004893665445665,-0.0004556074481074,-0.0004012647130647
-0.0005524779975579,-0.0004793765567765,-0.0003862476190476,0.0005151748962148,-8.206126984126955e-05,-0.0004316116727716,-0.0006767838827838,-0.0007633793650793,-0.0006805509401709,-0.0004893665445665,-0.0004525901098901,-0.0003982473748473
-0.0005494423687423,-0.0004854444444444,-0.0003923301587301,0.0005151748962148,-7.902175824175796e-05,-0.0004376907448107,-0.0006767838827838,-0.0007633793650793,-0.0006835755799755,-0.0004893665445665,-0.0004525901098901,-0.0003982473748473
-0.0005555136263736,-0.0004884783882783,-0.0003923301587301,0.0005212355067155,-8.206126984126955e-05,-0.0004407302808302,-0.0006767838827838,-0.0007633793650793,-0.0006835755799755,-0.0004923875457875,-0.0004556074481074,-0.0004012647130647
-0.0005555136263736,-0.0004945462759462,-0.0003953714285714,0.0005242658119658,-7.902175824175796e-05,-0.0004437698168498,-0.0006737352869352,-0.000760338095238,-0.0006835755799755,-0.0004893665445665,-0.0004556074481074,-0.0004012647130647
-0.0005464067399267,-0.0004945462759462,-0.0004075365079365,0.0005182052014652,-6.990322344322315e-05,-0.0004498488888888,-0.0006767838827838,-0.0007633793650793,-0.0006866002197802,-0.0004923875457875,-0.0004616421245421,-0.0004072993894993
-0.0005403354822954,-0.0004915123321123,-0.0004105777777777,0.0005151748962148,-6.382420024419996e-05,-0.0004498488888888,-0.000682881074481,-0.0007633793650793,-0.0006866002197802,-0.0004954085470085,-0.0004616421245421,-0.0004103167277167
-0.0005494423687423,-0.0004824105006105,-0.0003923301587301,0.0005151748962148,-7.902175824175796e-05,-0.0004376907448107,-0.000682881074481,-0.000760338095238,-0.0006866002197802,-0.0004923875457875,-0.0004586247863247,-0.0004103167277167
-0.0005524779975579,-0.0004854444444444,-0.0003892888888888,0.0005182052014652,-8.206126984126955e-05,-0.0004376907448107,-0.000682881074481,-0.000760338095238,-0.0006866002197802,-0.0004954085470085,-0.0004616421245421,-0.000413334065934
-0.0005494423687423,-0.0004854444444444,-0.0003953714285714,0.0005151748962148,-7.598224664224636e-05,-0.0004407302808302,-0.000682881074481,-0.0007633793650793,-0.0006896248595848,-0.0004984295482295,-0.0004646594627594,-0.000413334065934
-0.0005464067399267,-0.0004854444444444,-0.0004014539682539,0.0005151748962148,-7.294273504273476e-05,-0.0004437698168498,-0.0006859296703296,-0.0007664206349206,-0.0006926494993894,-0.0005014505494505,-0.0004676768009768,-0.000413334065934
-0.0005464067399267,-0.0004824105006105,-0.0003984126984126,0.0005121445909645,-7.294273504273476e-05,-0.0004407302808302,-0.0006889782661782,-0.0007694619047619,-0.0006926494993894,-0.0004984295482295,-0.0004646594627594,-0.0004103167277167
-0.0005464067399267,-0.0004824105006105,-0.0003984126984126,0.0005121445909645,-7.294273504273476e-05,-0.0004407302808302,-0.0006920268620268,-0.0007694619047619,-0.0006926494993894,-0.0004923875457875,-0.0004586247863247,-0.0004072993894993
-0.0005494423687423,-0.0004854444444444,-0.0003984126984126,0.0005151748962148,-7.598224664224636e-05,-0.0004407302808302,-0.0006889782661782,-0.0007664206349206,-0.0006896248595848,-0.0004923875457875,-0.0004586247863247,-0.0004072993894993
-0.0005555136263736,-0.0004824105006105,-0.0003892888888888,0.0005182052014652,-8.206126984126955e-05,-0.0004346512087912,-0.000682881074481,-0.0007664206349206,-0.0006896248595848,-0.0004893665445665,-0.0004586247863247,-0.0004072993894993
-0.0005615848840048,-0.0004824105006105,-0.0003832063492063,0.0005212355067155,-8.814029304029276e-05,-0.0004316116727716,-0.0006859296703296,-0.0007664206349206,-0.0006896248595848,-0.0004923875457875,-0.0004556074481074,-0.0004072993894993
-0.0005646205128205,-0.0004824105006105,-0.0003740825396825,0.0005212355067155,-9.421931623931596e-05,-0.0004285721367521,-0.000682881074481,-0.0007633793650793,-0.0006866002197802,-0.0004893665445665,-0.0004525901098901,-0.0004012647130647
-0.0005555136263736,-0.0004763426129426,-0.0003771238095238,0.0005151748962148,-8.814029304029276e-05,-0.0004255326007326,-0.0006859296703296,-0.0007633793650793,-0.0006866002197802,-0.0004893665445665,-0.0004525901098901,-0.0003982473748473
-0.0005464067399267,-0.0004854444444444,-0.0003984126984126,0.0005151748962148,-7.294273504273476e-05,-0.0004407302808302,-0.0006920268620268,-0.0007694619047619,-0.0006956741391941,-0.0004984295482295,-0.0004616421245421,-0.0004072993894993
-0.0005433711111111,-0.0004975802197802,-0.0004105777777777,0.0005182052014652,-6.686371184371155e-05,-0.0004528884249084,-0.0006889782661782,-0.0007664206349206,-0.0007017234188034,-0.0005044715506715,-0.0004706941391941,-0.0004163514041514
-0.0005403354822954,-0.0004915123321123,-0.0004075365079365,0.0005151748962148,-6.686371184371155e-05,-0.0004498488888888,-0.0006889782661782,-0.0007633793650793,-0.0006986987789987,-0.0005014505494505,-0.0004646594627594,-0.0004103167277167
-0.0005464067399267,-0.0004884783882783,-0.0003953714285714,0.0005151748962148,-7.598224664224636e-05,-0.0004407302808302,-0.0006920268620268,-0.0007664206349206,-0.0006926494993894,-0.0004954085470085,-0.0004586247863247,-0.000404282051282
-0.0005555136263736,-0.0004884783882783,-0.0003862476190476,0.0005212355067155,-8.510078144078116e-05,-0.0004376907448107,-0.0006889782661782,-0.0007633793650793,-0.0006896248595848,-0.0004923875457875,-0.0004556074481074,-0.0004012647130647
-0.0005585492551892,-0.0004884783882783,-0.0003862476190476,0.0005212355067155,-8.510078144078116e-05,-0.0004376907448107,-0.0006859296703296,-0.0007664206349206,-0.0006896248595848,-0.0004984295482295,-0.0004616421245421,-0.0004103167277167
-0.0005585492551892,-0.0004854444444444,-0.0003832063492063,0.0005212355067155,-8.814029304029276e-05,-0.0004346512087912,-0.0006859296703296,-0.0007664206349206,-0.0006926494993894,-0.0005014505494505,-0.0004646594627594,-0.000413334065934
-0.0005524779975579,-0.0004793765567765,-0.0003832063492063,0.0005151748962148,-8.510078144078116e-05,-0.0004316116727716,-0.0006889782661782,-0.0007664206349206,-0.0006926494993894,-0.0005014505494505,-0.0004646594627594,-0.000413334065934
-0.0005433711111111,-0.0004763426129426,-0.0003923301587301,0.0005091142857142,-7.598224664224636e-05,-0.0004346512087912,-0.0006950754578754,-0.0007664206349206,-0.0006956741391941,-0.0005014505494505,-0.0004616421245421,-0.0004103167277167
-0.0005464067399267,-0.0004854444444444,-0.0003984126984126,0.0005151748962148,-7.294273504273476e-05,-0.0004407302808302,-0.0006950754578754,-0.000760338095238,-0.0006896248595848,-0.0004984295482295,-0.0004586247863247,-0.0004072993894993
-0.0005585492551892,-0.0004884783882783,-0.0003892888888888,0.0005212355067155,-8.510078144078116e-05,-0.0004376907448107,-0.0006889782661782,-0.0007572968253968,-0.0006835755799755,-0.0004893665445665,-0.0004525901098901,-0.0003982473748473
-0.0005615848840048,-0.0004884783882783,-0.0003832063492063,0.0005242658119658,-8.814029304029276e-05,-0.0004346512087912,-0.000682881074481,-0.0007572968253968,-0.0006805509401709,-0.0004863455433455,-0.0004495727716727,-0.00039523003663
-0.0005646205128205,-0.0004824105006105,-0.0003771238095238,0.0005212355067155,-9.421931623931596e-05,-0.0004285721367521,-0.0006859296703296,-0.0007572968253968,-0.0006805509401709,-0.0004893665445665,-0.0004495727716727,-0.0003982473748473
-0.0005555136263736,-0.0004793765567765,-0.0003862476190476,0.0005151748962148,-8.510078144078116e-05,-0.0004316116727716,-0.0006889782661782,-0.000760338095238,-0.0006866002197802,-0.0004923875457875,-0.0004525901098901,-0.0004012647130647
-0.0005494423687423,-0.0004884783882783,-0.0003953714285714,0.0005182052014652,-7.598224664224636e-05,-0.0004407302808302,-0.0006920268620268,-0.000760338095238,-0.0006866002197802,-0.0004954085470085,-0.0004556074481074,-0.000404282051282
-0.0005555136263736,-0.0004945462759462,-0.0003953714285714,0.0005242658119658,-7.902175824175796e-05,-0.0004437698168498,-0.0006889782661782,-0.000760338095238,-0.0006866002197802,-0.0004984295482295,-0.0004586247863247,-0.000404282051282
-0.0005585492551892,-0.0004945462759462,-0.0003923301587301,0.0005242658119658,-8.206126984126955e-05,-0.0004437698168498,-0.0006859296703296,-0.0007633793650793,-0.0006866002197802,-0.0004954085470085,-0.0004556074481074,-0.000404282051282
-0.0005585492551892,-0.0004884783882783,-0.0003862476190476,0.0005212355067155,-8.510078144078116e-05,-0.0004376907448107,-0.0006889782661782,-0.0007633793650793,-0.0006866002197802,-0.0004923875457875,-0.0004525901098901,-0.0004012647130647
-0.0005555136263736,-0.0004884783882783,-0.0003862476190476,0.0005212355067155,-8.510078144078116e-05,-0.0004376907448107,-0.0006889782661782,-0.000760338095238,-0.0006835755799755,-0.0004893665445665,-0.0004495727716727,-0.00039523003663
-0.0005585492551892,-0.0004915123321123,-0.0003892888888888,0.0005242658119658,-8.510078144078116e-05,-0.0004407302808302,-0.0006920268620268,-0.000760338095238,-0.0006835755799755,-0.0004923875457875,-0.0004495727716727,-0.00039523003663
-0.0005555136263736,-0.0004945462759462,-0.0003953714285714,0.0005242658119658,-7.902175824175796e-05,-0.0004437698168498,-0.0006920268620268,-0.0007633793650793,-0.0006835755799755,-0.0004954085470085,-0.0004525901098901,-0.000404282051282
-0.0005585492551892,-0.0004945462759462,-0.0003892888888888,0.0005242658119658,-8.510078144078116e-05,-0.0004407302808302,-0.0006859296703296,-0.000760338095238,-0.0006835755799755,-0.0004954085470085,-0.0004556074481074,-0.0004072993894993
-0.0005585492551892,-0.0004854444444444,-0.0003892888888888,0.0005212355067155,-8.510078144078116e-05,-0.0004376907448107,-0.0006920268620268,-0.0007633793650793,-0.0006896248595848,-0.0004984295482295,-0.0004556074481074,-0.000404282051282
-0.0005555136263736,-0.0004793765567765,-0.0003862476190476,0.0005151748962148,-8.510078144078116e-05,-0.0004316116727716,-0.000698124053724,-0.0007664206349206,-0.0006926494993894,-0.0005014505494505,-0.0004586247863247,-0.000404282051282
-0.0005615848840048,-0.0004763426129426,-0.000380165079365,0.0005182052014652,-9.117980463980436e-05,-0.0004285721367521,-0.0007011726495726,-0.0007664206349206,-0.0006866002197802,-0.0005014505494505,-0.0004556074481074,-0.0004012647130647
-0.0005615848840048,-0.0004854444444444,-0.0003832063492063,0.0005212355067155,-8.814029304029276e-05,-0.0004346512087912,-0.0006950754578754,-0.000760338095238,-0.0006835755799755,-0.0004984295482295,-0.0004556074481074,-0.000404282051282
-0.0005615848840048,-0.0004945462759462,-0.0003892888888888,0.0005272961172161,-8.510078144078116e-05,-0.0004407302808302,-0.0006950754578754,-0.0007572968253968,-0.0006835755799755,-0.0004984295482295,-0.0004556074481074,-0.0004072993894993
-0.0005585492551892,-0.0004884783882783,-0.0003862476190476,0.0005212355067155,-8.510078144078116e-05,-0.0004376907448107,-0.000698124053724,-0.000760338095238,-0.0006835755799755,-0.0004954085470085,-0.0004525901098901,-0.000404282051282
-0.0005585492551892,-0.0004854444444444,-0.0003832063492063,0.0005212355067155,-8.814029304029276e-05,-0.0004346512087912,-0.0006950754578754,-0.0007572968253968,-0.0006835755799755,-0.0004954085470085,-0.0004525901098901,-0.0004012647130647
-0.0005615848840048,-0.0004824105006105,-0.000380165079365,0.0005212355067155,-9.117980463980436e-05,-0.0004316116727716,-0.000698124053724,-0.000760338095238,-0.0006835755799755,-0.0004954085470085,-0.0004556074481074,-0.000404282051282
-0.0005676561416361,-0.0004824105006105,-0.0003771238095238,0.0005242658119658,-9.421931623931596e-05,-0.0004285721367521,-0.000698124053724,-0.0007633793650793,-0.0006835755799755,-0.0004984295482295,-0.0004586247863247,-0.0004072993894993
-0.0005646205128205,-0.0004824105006105,-0.0003771238095238,0.0005212355067155,-9.421931623931596e-05,-0.0004285721367521,-0.0006950754578754,-0.0007633793650793,-0.0006835755799755,-0.0004984295482295,-0.0004556074481074,-0.0004072993894993
-0.0005615848840048,-0.0004824105006105,-0.000380165079365,0.0005212355067155,-9.117980463980436e-05,-0.0004316116727716,-0.000698124053724,-0.0007633793650793,-0.0006835755799755,-0.0004984295482295,-0.0004556074481074,-0.0004072993894993
-0.0005615848840048,-0.0004824105006105,-0.000380165079365,0.0005212355067155,-9.117980463980436e-05,-0.0004316116727716,-0.000698124053724,-0.000760338095238,-0.0006805509401709,-0.0005014505494505,-0.0004525901098901,-0.0004072993894993
-0.0005615848840048,-0.0004763426129426,-0.0003740825396825,0.0005182052014652,-9.421931623931596e-05,-0.0004255326007326,-0.000698124053724,-0.0007572968253968,-0.0006805509401709,-0.0004984295482295,-0.0004525901098901,-0.0004072993894993
-0.0005615848840048,-0.0004763426129426,-0.0003710412698412,0.0005182052014652,-9.421931623931596e-05,-0.000422493064713,-0.000698124053724,-0.000760338095238,-0.0006805509401709,-0.0004954085470085,-0.0004525901098901,-0.000404282051282
-0.0005676561416361,-0.0004763426129426,-0.0003679999999999,0.0005212355067155,-0.0001002983394383,-0.000422493064713,-0.0006950754578754,-0.0007572968253968,-0.0006775263003663,-0.0004923875457875,-0.0004495727716727,-0.000404282051282
-0.0005676561416361,-0.0004733086691086,-0.0003649587301587,0.0005182052014652,-0.0001002983394383,-0.0004194535286935,-0.0006950754578754,-0.0007572968253968,-0.0006745016605616,-0.0004893665445665,-0.0004465554334554,-0.0004012647130647
-0.0005615848840048,-0.0004733086691086,-0.0003679999999999,0.0005151748962148,-9.725882783882755e-05,-0.0004194535286935,-0.000698124053724,-0.0007572968253968,-0.0006775263003663,-0.0004923875457875,-0.0004465554334554,-0.0003982473748473
-0.0005585492551892,-0.0004733086691086,-0.0003710412698412,0.0005151748962148,-9.421931623931596e-05,-0.000422493064713,-0.000698124053724,-0.000760338095238,-0.0006805509401709,-0.0004954085470085,-0.0004525901098901,-0.000404282051282
-0.0005676561416361,-0.0004733086691086,-0.0003649587301587,0.0005182052014652,-0.0001002983394383,-0.0004194535286935,-0.000698124053724,-0.0007633793650793,-0.0006805509401709,-0.0004984295482295,-0.0004556074481074,-0.000404282051282
-0.0005676561416361,-0.0004702747252747,-0.0003649587301587,0.0005182052014652,-0.0001002983394383,-0.0004164139926739,-0.0006950754578754,-0.0007633793650793,-0.0006835755799755,-0.0005014505494505,-0.0004586247863247,-0.0004012647130647
-0.0005676561416361,-0.0004733086691086,-0.0003649587301587,0.0005182052014652,-0.0001002983394383,-0.0004194535286935,-0.0006950754578754,-0.0007633793650793,-0.0006835755799755,-0.0004984295482295,-0.0004556074481074,-0.0003982473748473
-0.0005646205128205,-0.0004763426129426,-0.0003679999999999,0.0005182052014652,-9.725882783882755e-05,-0.000422493064713,-0.000698124053724,-0.0007542555555555,-0.0006805509401709,-0.0004923875457875,-0.0004465554334554,-0.0003922126984126
-0.0005676561416361,-0.0004733086691086,-0.0003619174603174,0.0005182052014652,-0.0001033378510378,-0.0004164139926739,-0.000698124053724,-0.0007512142857142,-0.0006745016605616,-0.0004863455433455,-0.0004405207570207,-0.000386178021978
-0.0005646205128205,-0.0004672407814407,-0.0003558349206349,0.0005151748962148,-0.0001033378510378,-0.0004103349206349,-0.0006920268620268,-0.0007512142857142,-0.0006745016605616,-0.0004893665445665,-0.000443538095238,-0.0003891953601953
-0.0005676561416361,-0.0004642068376068,-0.0003527936507936,0.0005151748962148,-0.0001063773626373,-0.0004072953846153,-0.0006889782661782,-0.000748173015873,-0.000671477020757,-0.0004893665445665,-0.0004465554334554,-0.0003922126984126
-0.0005615848840048,-0.000455105006105,-0.0003497523809523,0.0005060839804639,-0.0001063773626373,-0.0004012163125763,-0.0006889782661782,-0.0007451317460317,-0.000671477020757,-0.0004863455433455,-0.000443538095238,-0.0003922126984126
-0.0005524779975579,-0.0004490371184371,-0.0003527936507936,0.0005000233699633,-0.0001002983394383,-0.0004012163125763,-0.0006950754578754,-0.0007420904761904,-0.000671477020757,-0.0004863455433455,-0.0004405207570207,-0.0003891953601953
-0.0005464067399267,-0.0004490371184371,-0.0003619174603174,0.000496993064713,-9.117980463980436e-05,-0.0004042558485958,-0.0006950754578754,-0.0007390492063492,-0.0006684523809523,-0.0004863455433455,-0.0004405207570207,-0.00039523003663
-0.0005524779975579,-0.000455105006105,-0.0003619174603174,0.0005030536752136,-9.421931623931596e-05,-0.0004072953846153,-0.0006859296703296,-0.0007299253968253,-0.0006624031013431,-0.0004833245421245,-0.000443538095238,-0.0003982473748473
-0.0005524779975579,-0.0004672407814407,-0.0003771238095238,0.0005091142857142,-8.814029304029276e-05,-0.000422493064713,-0.0006767838827838,-0.0007208015873015,-0.0006593784615384,-0.0004833245421245,-0.0004465554334554,-0.0004012647130647
-0.0005464067399267,-0.0004490371184371,-0.0003619174603174,0.000496993064713,-9.117980463980436e-05,-0.0004042558485958,-0.0006737352869352,-0.0007116777777777,-0.0006503045421245,-0.0004712405372405,-0.0004314687423687,-0.0003831606837606
-0.0005312285958485,-0.0004217316239316,-0.0003467111111111,0.0004757809279609,-9.117980463980436e-05,-0.000382979096459,-0.0006767838827838,-0.0006995126984126,-0.0006412306227106,-0.0004591565323565,-0.0004193993894993,-0.0003710913308913
-0.0005069435653235,-0.0004095958485958,-0.0003558349206349,0.000457599096459,-7.598224664224636e-05,-0.000382979096459,-0.0006767838827838,-0.0006903888888888,-0.0006382059829059,-0.0004591565323565,-0.0004193993894993,-0.0003710913308913
-0.0005008723076923,-0.0004126297924297,-0.0003679999999999,0.0004545687912087,-6.686371184371155e-05,-0.0003890581684981,-0.0006706866910866,-0.0006843063492063,-0.0006382059829059,-0.0004591565323565,-0.0004224167277167,-0.000377126007326
-0.0005221217094017,-0.0004156637362637,-0.0003497523809523,0.00046669001221,-8.510078144078116e-05,-0.000382979096459,-0.0006737352869352,-0.0006903888888888,-0.0006382059829059,-0.0004531145299145,-0.000416382051282,-0.0003710913308913
-0.0005372998534798,-0.0004277995115995,-0.0003436698412698,0.0004818415384615,-9.725882783882755e-05,-0.0003860186324786,-0.000682881074481,-0.0006964714285714,-0.0006503045421245,-0.0004591565323565,-0.0004193993894993,-0.0003680739926739
-0.0005372998534798,-0.0004460031746031,-0.0003649587301587,0.0004909324542124,-8.510078144078116e-05,-0.0004042558485958,-0.0006889782661782,-0.0007025539682539,-0.0006624031013431,-0.0004742615384615,-0.000434486080586,-0.000386178021978
-0.0005342642246642,-0.000455105006105,-0.0003771238095238,0.0004939627594627,-7.902175824175796e-05,-0.0004164139926739,-0.0006889782661782,-0.0007055952380952,-0.000671477020757,-0.0004833245421245,-0.0004405207570207,-0.00039523003663
-0.0005312285958485,-0.0004490371184371,-0.0003740825396825,0.0004879021489621,-7.902175824175796e-05,-0.0004103349206349,-0.0007072698412698,-0.0007177603174603,-0.0006745016605616,-0.0004833245421245,-0.0004375034188034,-0.00039523003663
-0.0005312285958485,-0.0004460031746031,-0.0003710412698412,0.0004879021489621,-7.902175824175796e-05,-0.0004072953846153,-0.00072861001221,-0.0007420904761904,-0.0006805509401709,-0.0004893665445665,-0.0004405207570207,-0.0003922126984126
-0.0005281929670329,-0.0004460031746031,-0.0003771238095238,0.0004848718437118,-7.598224664224636e-05,-0.0004103349206349,-0.0007408043956043,-0.0007542555555555,-0.0006896248595848,-0.0004954085470085,-0.0004405207570207,-0.0003891953601953
-0.000519086080586,-0.0004611728937728,-0.0004044952380952,0.0004879021489621,-5.774517704517676e-05,-0.0004316116727716,-0.0007408043956043,-0.0007542555555555,-0.0006986987789987,-0.0005044715506715,-0.0004495727716727,-0.0004012647130647
-0.0005130148229548,-0.0004733086691086,-0.0004197015873015,0.0004909324542124,-4.558713064713037e-05,-0.0004468093528693,-0.0007347072039072,-0.000748173015873,-0.0006986987789987,-0.0005044715506715,-0.0004586247863247,-0.0004103167277167
-0.0005342642246642,-0.0004763426129426,-0.0004014539682539,0.0005030536752136,-6.686371184371155e-05,-0.0004376907448107,-0.00072861001221,-0.0007451317460317,-0.0006926494993894,-0.0004984295482295,-0.0004495727716727,-0.0004012647130647
-0.0005524779975579,-0.0004733086691086,-0.000380165079365,0.0005121445909645,-8.510078144078116e-05,-0.0004255326007326,-0.0007255614163614,-0.0007512142857142,-0.0006986987789987,-0.0005014505494505,-0.000443538095238,-0.0003922126984126
-0.0005494423687423,-0.0004702747252747,-0.000380165079365,0.0005091142857142,-8.510078144078116e-05,-0.0004255326007326,-0.0007316586080586,-0.0007633793650793,-0.0007077726984126,-0.0005105135531135,-0.0004525901098901,-0.00039523003663
-0.0005524779975579,-0.0004702747252747,-0.0003710412698412,0.0005091142857142,-9.117980463980436e-05,-0.0004194535286935,-0.0007316586080586,-0.0007725031746031,-0.0007168466178266,-0.0005165555555555,-0.0004556074481074,-0.0003982473748473
-0.0005676561416361,-0.0004763426129426,-0.0003619174603174,0.0005212355067155,-0.0001033378510378,-0.0004194535286935,-0.0007255614163614,-0.0007694619047619,-0.0007107973382173,-0.0005135345543345,-0.0004525901098901,-0.00039523003663
-0.0005797986568986,-0.0004884783882783,-0.0003679999999999,0.0005333567277167,-0.0001063773626373,-0.0004285721367521,-0.0007164156288156,-0.0007694619047619,-0.0007077726984126,-0.0005135345543345,-0.0004556074481074,-0.0004072993894993
-0.0005828342857142,-0.0004915123321123,-0.0003649587301587,0.000536387032967,-0.0001094168742368,-0.0004285721367521,-0.0007164156288156,-0.0007755444444444,-0.0007077726984126,-0.0005105135531135,-0.0004556074481074,-0.0004072993894993
-0.0005828342857142,-0.0004824105006105,-0.0003619174603174,0.0005303264224664,-0.0001094168742368,-0.000422493064713,-0.0007194642246642,-0.0007755444444444,-0.000704748058608,-0.0005044715506715,-0.000443538095238,-0.00039523003663
-0.0005706917704517,-0.0004793765567765,-0.0003679999999999,0.0005242658119658,-0.0001002983394383,-0.000422493064713,-0.0007255614163614,-0.0007755444444444,-0.0007077726984126,-0.0005074925518925,-0.0004405207570207,-0.0003922126984126
-0.0005555136263736,-0.0004854444444444,-0.0003892888888888,0.0005182052014652,-8.206126984126955e-05,-0.0004376907448107,-0.0007316586080586,-0.0007785857142857,-0.0007138219780219,-0.0005135345543345,-0.0004525901098901,-0.0004072993894993
-0.0005524779975579,-0.0004915123321123,-0.0003984126984126,0.0005212355067155,-7.598224664224636e-05,-0.0004437698168498,-0.0007316586080586,-0.0007785857142857,-0.0007168466178266,-0.0005195765567765,-0.0004616421245421,-0.0004163514041514
-0.0005615848840048,-0.0004824105006105,-0.000380165079365,0.0005212355067155,-9.117980463980436e-05,-0.0004316116727716,-0.0007255614163614,-0.0007755444444444,-0.0007107973382173,-0.0005105135531135,-0.0004495727716727,-0.0004072993894993
-0.0005737273992673,-0.0004611728937728,-0.0003436698412698,0.0005151748962148,-0.0001154958974358,-0.0004012163125763,-0.0007225128205128,-0.0007694619047619,-0.0006986987789987,-0.0004984295482295,-0.0004375034188034,-0.00039523003663
-0.0005828342857142,-0.0004490371184371,-0.0003223809523809,0.0005151748962148,-0.0001306934554334,-0.0003860186324786,-0.0007225128205128,-0.0007664206349206,-0.0006926494993894,-0.0004923875457875,-0.0004284514041514,-0.0003891953601953
-0.0005797986568986,-0.0004490371184371,-0.0003284634920634,0.0005121445909645,-0.0001246144322344,-0.0003890581684981,-0.0007255614163614,-0.0007664206349206,-0.0006896248595848,-0.0004863455433455,-0.0004284514041514,-0.0003922126984126
-0.0005737273992673,-0.0004490371184371,-0.000334546031746,0.0005091142857142,-0.0001185354090354,-0.0003920977045177,-0.00072861001221,-0.0007694619047619,-0.0006896248595848,-0.0004863455433455,-0.0004224167277167,-0.0003891953601953
-0.0005676561416361,-0.0004490371184371,-0.0003406285714285,0.0005060839804639,-0.0001124563858363,-0.0003951372405372,-0.0007316586080586,-0.0007694619047619,-0.0006866002197802,-0.0004833245421245,-0.0004224167277167,-0.0003922126984126
-0.0005676561416361,-0.0004399352869352,-0.0003315047619047,0.0005030536752136,-0.0001185354090354,-0.0003860186324786,-0.0007255614163614,-0.0007390492063492,-0.0006563538217338,-0.0004682195360195,-0.0004224167277167,-0.000404282051282
-0.0005615848840048,-0.000400494017094,-0.000301092063492,0.0004788112332112,-0.0001306934554334,-0.0003495442002442,-0.0007164156288156,-0.0006903888888888,-0.000595861025641,-0.0004380095238095,-0.0004133647130647,-0.0004103167277167
-0.0005342642246642,-0.0002943059829059,-0.0002189777777777,0.0004121445177045,-0.000158049059829,-0.0002553185836385,-0.0007194642246642,-0.0006113158730158,-0.0004960479120879,-0.0003685264957264,-0.0003711219780219,-0.000386178021978
-0.0004735516483516,-0.0001092354090354,-9.732698412698404e-05,0.0002909323076923,-0.0001884441758241,-0.0001033417826617,-0.0007529987789987,-0.0004866238095238,-0.0003296927228327,-0.0002053924297924,-0.0002443937728937,-0.0003077272283272
-0.0003703402686202,0.0001274122100122,3.344761904761914e-05,0.0001212352136752,-0.0002006022222222,7.903037851037847e-05,-0.000826165079365,-0.0004166746031746,-0.0001270418559218,3.326666666666614e-05,-4.826678876678892e-05,-0.000171947008547
-0.0002155231990231,0.0004641799755799,0.0002128825396825,-0.0001242195115995,-0.0002127602686202,0.0003373909401709,-0.0010182266178266,-0.0006052333333333,4.536261294261286e-05,0.0003353667887667,0.0002413976800976,7.245738705738645e-05
-4.2492356532356805e-05,0.0008221853479853,0.0003953587301587,-0.000387856068376,-0.0002188392918192,0.0006079096459096,-0.0013352805860805,-0.0009549793650793,0.0001300525274725,0.0006465299145299,0.0005793395604395,0.0003741912087912
0.0001244672283272,0.0011043421245421,0.0005109269841269,-0.0006120986568986,-0.0001914836874236,0.000808519023199,-0.0017102578754578,-0.0013077666666666,8.468293040293032e-05,0.000885189010989,0.0008810733821733,0.0006698903540903
0.0002246429792429,0.0012287338217338,0.0005352571428571,-0.0007242199511599,-0.0001550095482295,0.0008814678876678,-0.0019968258852258,-0.0015693158730158,-6.35244200244201e-05,0.000927483028083,0.0010138362637362,0.0008629999999999
0.0001730372893772,0.0008858981684981,0.0002432952380952,-0.0005272501098901,-3.342908424908396e-05,0.0005653561416361,-0.0020212146520146,-0.0016940079365079,-0.0004295058363858,0.0005407948717948,0.0007573625152625,0.0007513584859584
-7.588427350427377e-05,0.0002730415140415,-0.0001155746031746,-9.694676434676432e-05,1.8242612942613222e-05,7.903037851037847e-05,-0.0018169587301587,-0.0018430301587301,-0.0009255467643467,-7.851037851037902e-05,0.000280623076923,0.000452642002442
-0.0003521264957264,-3.035286935286916e-05,-0.0001368634920634,0.0001909322344322,-0.0001063773626373,-8.206503052503056e-05,-0.0016127028083028,-0.0020346301587301,-0.001267331062271,-0.0004803035409035,-1.507606837606853e-05,0.0002595323565323
-0.0005099791941391,-0.0002214913308913,-0.0001672761904761,0.0003636596336996,-0.0001702071062271,-0.0001945278632478,-0.0014358842490842,-0.001943392063492,-0.0013489963369963,-0.0006615636141636,-0.000211203052503,7.849206349206289e-05
-0.0005676561416361,-0.000342849084249,-0.0002341841269841,0.0004545687912087,-0.0001671675946275,-0.0002887534798534,-0.0013078432234432,-0.0016940079365079,-0.0012461585836385,-0.0006796896214896,-0.0003228445665445,-8.142686202686261e-05
-0.0005949768009768,-0.0003792564102564,-0.0002493904761904,0.0004848718437118,-0.0001732466178266,-0.0003130697680097,-0.0011828507936507,-0.0014385412698412,-0.0010979512332112,-0.0006253115995115,-0.0003560352869352,-0.0001840163614163
-0.0005949768009768,-0.0003944261294261,-0.0002615555555555,0.0004939627594627,-0.0001671675946275,-0.0003282674481074,-0.0010395667887667,-0.001210446031746,-0.0009678917216117,-0.0005769755799755,-0.0003741393162393,-0.0002564324786324
-0.000576763028083,-0.0003944261294261,-0.0002798031746031,0.0004848718437118,-0.0001489305250305,-0.000337386056166,-0.0008962827838827,-0.0009975571428571,-0.0008529554090354,-0.0005316605616605,-0.0003831913308913,-0.0003137619047619
-0.0005585492551892,-0.0003822903540903,-0.0002828444444444,0.0004697203174603,-0.0001367724786324,-0.0003313069841269,-0.0007834847374847,-0.0008333285714285,-0.0007561669352869,-0.0004863455433455,-0.0003801739926739,-0.0003469526251526
-0.0005433711111111,-0.0003671206349206,-0.0002798031746031,0.0004545687912087,-0.0001306934554334,-0.0003221883760683,-0.0007255614163614,-0.0007390492063492,-0.0006896248595848,-0.0004531145299145,-0.0003711219780219,-0.0003590219780219
-0.0005342642246642,-0.0003701545787545,-0.0002950095238095,0.0004515384859584,-0.0001185354090354,-0.0003313069841269,-0.0007072698412698,-0.0007025539682539,-0.000671477020757,-0.0004500935286935,-0.0003771566544566,-0.0003710913308913
-0.0005312285958485,-0.0003853242979242,-0.0003132571428571,0.000457599096459,-0.0001094168742368,-0.0003495442002442,-0.000698124053724,-0.0006903888888888,-0.0006684523809523,-0.0004591565323565,-0.0003922433455433,-0.000386178021978
-0.0005494423687423,-0.0003853242979242,-0.0002950095238095,0.00046669001221,-0.0001276539438339,-0.0003404255921855,-0.0006889782661782,-0.0006721412698412,-0.0006593784615384,-0.0004561355311355,-0.000389226007326,-0.0003891953601953
-0.0005737273992673,-0.0003853242979242,-0.0002737206349206,0.0004788112332112,-0.0001489305250305,-0.0003282674481074,-0.0006767838827838,-0.0006569349206349,-0.0006472799023199,-0.0004531145299145,-0.000389226007326,-0.0003922126984126
-0.0005797986568986,-0.0003853242979242,-0.000267638095238,0.0004818415384615,-0.0001550095482295,-0.0003252279120879,-0.000667638095238,-0.0006508523809523,-0.0006412306227106,-0.0004531145299145,-0.0003952606837606,-0.00039523003663
-0.000576763028083,-0.0003853242979242,-0.000267638095238,0.0004788112332112,-0.0001550095482295,-0.0003252279120879,-0.0006615409035409,-0.0006417285714285,-0.0006351813431013,-0.0004500935286935,-0.000398278021978,-0.0004012647130647
-0.0005706917704517,-0.0003822903540903,-0.0002706793650793,0.0004757809279609,-0.0001489305250305,-0.0003252279120879,-0.0006615409035409,-0.0006265222222222,-0.000629132063492,-0.0004470725274725,-0.000398278021978,-0.0004072993894993
-0.0005646205128205,-0.0003853242979242,-0.0002798031746031,0.0004727506227106,-0.0001428515018315,-0.0003313069841269,-0.0006615409035409,-0.0006204396825396,-0.0006230827838827,-0.0004470725274725,-0.000398278021978,-0.0004103167277167
-0.0005646205128205,-0.0003944261294261,-0.0002889269841269,0.0004788112332112,-0.0001367724786324,-0.0003404255921855,-0.0006554437118437,-0.0006113158730158,-0.0006230827838827,-0.0004500935286935,-0.0004012953601953,-0.0004163514041514
-0.0005585492551892,-0.00039746007326,-0.0002980507936507,0.0004757809279609,-0.0001306934554334,-0.0003465046642246,-0.0006554437118437,-0.0006052333333333,-0.0006230827838827,-0.0004561355311355,-0.0004043126984126,-0.0004193687423687
-0.0005585492551892,-0.0003944261294261,-0.0002950095238095,0.0004757809279609,-0.0001306934554334,-0.0003434651282051,-0.0006554437118437,-0.0005991507936507,-0.0006230827838827,-0.0004531145299145,-0.00040733003663,-0.000422386080586
-0.0005615848840048,-0.0003853242979242,-0.0002858857142857,0.0004727506227106,-0.0001367724786324,-0.0003343465201465,-0.0006554437118437,-0.0005961095238095,-0.0006170335042735,-0.0004500935286935,-0.0004012953601953,-0.000413334065934
-0.0005646205128205,-0.0003822903540903,-0.0002767619047619,0.0004727506227106,-0.0001428515018315,-0.0003282674481074,-0.0006554437118437,-0.0005900269841269,-0.0006079595848595,-0.0004440515262515,-0.0003952606837606,-0.0004072993894993
-0.0005646205128205,-0.0003822903540903,-0.0002767619047619,0.0004727506227106,-0.0001428515018315,-0.0003282674481074,-0.0006523951159951,-0.0005869857142857,-0.0006049349450549,-0.0004410305250305,-0.0003952606837606,-0.0004072993894993
-0.0005646205128205,-0.0003883582417582,-0.0002798031746031,0.0004757809279609,-0.0001428515018315,-0.0003343465201465,-0.0006523951159951,-0.0005839444444444,-0.0006049349450549,-0.0004440515262515,-0.000398278021978,-0.0004103167277167
-0.0005646205128205,-0.0003853242979242,-0.0002798031746031,0.0004727506227106,-0.0001428515018315,-0.0003313069841269,-0.0006493465201465,-0.0005778619047619,-0.0006019103052503,-0.0004470725274725,-0.0003952606837606,-0.0004103167277167
-0.0005615848840048,-0.0003822903540903,-0.0002798031746031,0.0004697203174603,-0.0001398119902319,-0.0003313069841269,-0.0006523951159951,-0.0005717793650793,-0.0005988856654456,-0.0004470725274725,-0.0003952606837606,-0.0004103167277167
-0.0005615848840048,-0.0003792564102564,-0.0002767619047619,0.0004697203174603,-0.0001428515018315,-0.0003282674481074,-0.0006523951159951,-0.0005656968253968,-0.0005988856654456,-0.0004440515262515,-0.0003952606837606,-0.0004103167277167
-0.0005585492551892,-0.0003822903540903,-0.0002828444444444,0.0004697203174603,-0.0001367724786324,-0.0003313069841269,-0.0006523951159951,-0.0005596142857142,-0.0005988856654456,-0.0004470725274725,-0.000398278021978,-0.0004163514041514
-0.0005555136263736,-0.0003913921855921,-0.0002919682539682,0.0004727506227106,-0.0001306934554334,-0.0003404255921855,-0.0006462979242979,-0.0005535317460317,-0.0005988856654456,-0.0004531145299145,-0.00040733003663,-0.0004254034188034
-0.0005464067399267,-0.00039746007326,-0.0003102158730158,0.0004697203174603,-0.0001185354090354,-0.0003525837362637,-0.0006462979242979,-0.0005504904761904,-0.0006019103052503,-0.0004561355311355,-0.0004103473748473,-0.0004254034188034
-0.0005464067399267,-0.0003944261294261,-0.0003071746031746,0.0004697203174603,-0.0001185354090354,-0.0003495442002442,-0.0006462979242979,-0.0005413666666666,-0.0005988856654456,-0.0004531145299145,-0.00040733003663,-0.000422386080586
-0.0005646205128205,-0.0003913921855921,-0.0002858857142857,0.0004757809279609,-0.0001398119902319,-0.000337386056166,-0.0006402007326007,-0.0005292015873015,-0.0005898117460317,-0.0004410305250305,-0.0003952606837606,-0.0004072993894993
-0.0005737273992673,-0.0003883582417582,-0.0002737206349206,0.0004788112332112,-0.0001489305250305,-0.0003313069841269,-0.0006341035409035,-0.0005200777777777,-0.0005807378266178,-0.0004349885225885,-0.0003862086691086,-0.0003982473748473
-0.0005676561416361,-0.0003883582417582,-0.0002798031746031,0.0004757809279609,-0.0001428515018315,-0.0003343465201465,-0.0006371521367521,-0.0005109539682539,-0.0005837624664224,-0.0004440515262515,-0.0003952606837606,-0.000404282051282
-0.0005646205128205,-0.0003913921855921,-0.0002828444444444,0.0004757809279609,-0.0001398119902319,-0.000337386056166,-0.0006402007326007,-0.0005048714285714,-0.0005807378266178,-0.0004440515262515,-0.000398278021978,-0.000413334065934
-0.0005646205128205,-0.00039746007326,-0.0002889269841269,0.0004788112332112,-0.0001367724786324,-0.0003434651282051,-0.0006402007326007,-0.0004987888888888,-0.0005777131868131,-0.0004470725274725,-0.0004012953601953,-0.0004163514041514
-0.0005615848840048,-0.0004035279609279,-0.000301092063492,0.0004818415384615,-0.0001306934554334,-0.0003525837362637,-0.0006371521367521,-0.0004866238095238,-0.0005746885470085,-0.0004470725274725,-0.0004043126984126,-0.0004254034188034
-0.0005646205128205,-0.0004186976800976,-0.0003162984126984,0.0004909324542124,-0.0001246144322344,-0.0003677814163614,-0.0006310549450549,-0.0004744587301587,-0.0005746885470085,-0.0004531145299145,-0.00040733003663,-0.0004344554334554
-0.0005615848840048,-0.0004217316239316,-0.0003223809523809,0.0004909324542124,-0.0001185354090354,-0.0003708209523809,-0.0006249577533577,-0.0004653349206349,-0.0005716639072039,-0.0004500935286935,-0.0004103473748473,-0.0004374727716727
-0.0005615848840048,-0.0004217316239316,-0.0003193396825396,0.0004909324542124,-0.0001215749206349,-0.0003708209523809,-0.0006188605616605,-0.0004562111111111,-0.0005656146275946,-0.0004470725274725,-0.0004043126984126,-0.000431438095238
-0.0005615848840048,-0.0004186976800976,-0.0003162984126984,0.0004879021489621,-0.0001215749206349,-0.0003677814163614,-0.0006188605616605,-0.0004410047619047,-0.0005565407081807,-0.0004410305250305,-0.0004012953601953,-0.0004254034188034
-0.0005615848840048,-0.0004217316239316,-0.0003223809523809,0.0004909324542124,-0.0001185354090354,-0.0003708209523809,-0.0006219091575091,-0.0004288396825396,-0.0005565407081807,-0.0004410305250305,-0.000398278021978,-0.0004284207570207
-0.0005615848840048,-0.0004247655677655,-0.0003254222222222,0.0004909324542124,-0.0001185354090354,-0.0003738604884004,-0.0006158119658119,-0.0004136333333333,-0.000553516068376,-0.0004380095238095,-0.000398278021978,-0.0004254034188034
-0.0005555136263736,-0.0004247655677655,-0.0003254222222222,0.0004879021489621,-0.0001154958974358,-0.0003738604884004,-0.0006097147741147,-0.0003984269841269,-0.0005474667887667,-0.0004349885225885,-0.000398278021978,-0.0004254034188034
-0.0005464067399267,-0.0004247655677655,-0.0003315047619047,0.0004848718437118,-0.0001063773626373,-0.00037690002442,-0.0006127633699633,-0.0003862619047619,-0.0005444421489621,-0.0004380095238095,-0.000398278021978,-0.0004284207570207
-0.0005433711111111,-0.0004156637362637,-0.0003315047619047,0.0004788112332112,-0.0001063773626373,-0.0003738604884004,-0.0006127633699633,-0.0003710555555555,-0.0005414175091575,-0.0004380095238095,-0.000398278021978,-0.0004254034188034
-0.0005403354822954,-0.0004126297924297,-0.0003284634920634,0.0004757809279609,-0.0001063773626373,-0.0003708209523809,-0.0006127633699633,-0.0003528079365079,-0.0005353682295482,-0.0004380095238095,-0.000398278021978,-0.0004284207570207
-0.0005403354822954,-0.0004126297924297,-0.0003315047619047,0.0004757809279609,-0.0001033378510378,-0.0003708209523809,-0.0006097147741147,-0.0003345603174603,-0.0005293189499389,-0.0004380095238095,-0.000398278021978,-0.0004284207570207
-0.0005433711111111,-0.0004156637362637,-0.000334546031746,0.0004788112332112,-0.0001033378510378,-0.0003738604884004,-0.0006005689865689,-0.0003163126984126,-0.000520245030525,-0.0004319675213675,-0.0003922433455433,-0.0004284207570207
-0.0005403354822954,-0.0004156637362637,-0.000334546031746,0.0004757809279609,-0.0001033378510378,-0.0003738604884004,-0.0005944717948717,-0.0002950238095238,-0.0005111711111111,-0.0004259255189255,-0.000389226007326,-0.0004193687423687
-0.0005312285958485,-0.0004156637362637,-0.0003406285714285,0.0004727506227106,-9.421931623931596e-05,-0.00037690002442,-0.0005914231990231,-0.0002706936507936,-0.0005051218315018,-0.0004229045177045,-0.0003862086691086,-0.0004193687423687
-0.0005251573382173,-0.0004065619047619,-0.0003375873015873,0.0004636597069597,-9.421931623931596e-05,-0.0003708209523809,-0.000585326007326,-0.0002494047619047,-0.0004990725518925,-0.0004198835164835,-0.0003831913308913,-0.0004163514041514
-0.0005160504517704,-0.00039746007326,-0.0003406285714285,0.0004545687912087,-8.814029304029276e-05,-0.0003677814163614,-0.000585326007326,-0.0002281158730158,-0.0004930232722832,-0.0004168625152625,-0.0003801739926739,-0.0004163514041514
-0.0005130148229548,-0.0003913921855921,-0.0003406285714285,0.0004515384859584,-8.510078144078116e-05,-0.0003647418803418,-0.0005792288156288,-0.0002037857142857,-0.0004869739926739,-0.0004108205128205,-0.0003771566544566,-0.000413334065934
-0.0005251573382173,-0.0003731885225885,-0.0003071746031746,0.0004485081807081,-0.0001094168742368,-0.0003404255921855,-0.0005670344322344,-0.0001764142857142,-0.0004688261538461,-0.0003926945054945,-0.0003590526251526,-0.00039523003663
-0.0005281929670329,-0.0003519509157509,-0.0002828444444444,0.0004394172649572,-0.0001215749206349,-0.0003161093040293,-0.0005609372405372,-0.0001490428571428,-0.0004506783150183,-0.0003745684981684,-0.0003409485958485,-0.000377126007326
-0.0005160504517704,-0.0003398151404151,-0.0002798031746031,0.000427296043956,-0.0001185354090354,-0.0003100302319902,-0.0005639858363858,-0.0001277539682539,-0.000444629035409,-0.0003715474969474,-0.0003349139194139,-0.0003741086691086
-0.0005099791941391,-0.0003276793650793,-0.0002767619047619,0.0004182051282051,-0.0001154958974358,-0.0003009116239316,-0.0005639858363858,-0.000106465079365,-0.0004385797557997,-0.0003685264957264,-0.0003349139194139,-0.0003710913308913
-0.0005039079365079,-0.0003125096459096,-0.0002706793650793,0.0004060839072039,-0.0001154958974358,-0.000291793015873,-0.0005578886446886,-8.821746031746001e-05,-0.0004295058363858,-0.0003655054945054,-0.0003318965811965,-0.0003650566544566
-0.0004978366788766,-0.0002973399267399,-0.0002585142857142,0.0003969929914529,-0.0001185354090354,-0.0002765953357753,-0.00055484004884,-6.692857142857113e-05,-0.0004204319169719,-0.0003564424908424,-0.0003198272283272,-0.0003560046398046
-0.0004887297924297,-0.0002791362637362,-0.0002463492063492,0.0003818414652014,-0.0001215749206349,-0.0002613976556776,-0.0005578886446886,-4.868095238095208e-05,-0.0004143826373626,-0.0003473794871794,-0.0003107752136752,-0.0003439352869352
-0.0004765872771672,-0.0002578986568986,-0.0002372253968253,0.0003666899389499,-0.0001185354090354,-0.0002461999755799,-0.0005639858363858,-3.651587301587271e-05,-0.000402284078144,-0.0003383164835164,-0.0002987058608058,-0.0003318659340659
-0.0004735516483516,-0.0002457628815628,-0.0002281015873015,0.000357599023199,-0.0001215749206349,-0.0002370813675213,-0.0005639858363858,-2.130952380952351e-05,-0.0003932101587301,-0.0003262324786324,-0.0002866365079365,-0.0003197965811965
-0.0004674803907203,-0.0002336271062271,-0.0002250603174603,0.0003485081074481,-0.0001215749206349,-0.0002279627594627,-0.0005609372405372,-1.5226984126983825e-05,-0.0003871608791208,-0.0003201904761904,-0.0002775844932844,-0.0003077272283272
-0.0004674803907203,-0.0002154234432234,-0.0002098539682539,0.0003394171916971,-0.0001276539438339,-0.000212765079365,-0.0005639858363858,-9.144444444444142e-06,-0.0003841362393162,-0.0003111274725274,-0.0002624978021978,-0.0002926405372405
-0.0004614091330891,-0.0001911518925518,-0.0001855238095238,0.0003242656654456,-0.0001367724786324,-0.0001884487912087,-0.0005670344322344,-9.144444444444142e-06,-0.0003750623199023,-0.0002990434676434,-0.0002443937728937,-0.0002685018315018
-0.0004523022466422,-0.0001668803418803,-0.0001733587301587,0.0003091141391941,-0.0001398119902319,-0.0001702115750915,-0.0005761802197802,-1.5226984126983825e-05,-0.0003720376800976,-0.0002930014652014,-0.0002323244200244,-0.0002534151404151
-0.0004492666178266,-0.0001486766788766,-0.0001551111111111,0.0002969929181929,-0.000145891013431,-0.0001519743589743,-0.000585326007326,-3.651587301587271e-05,-0.0003780869597069,-0.0002899804639804,-0.0002262897435897,-0.0002473804639804
-0.0004523022466422,-0.0001335069597069,-0.000142946031746,0.0002909323076923,-0.0001550095482295,-0.0001367766788766,-0.0005944717948717,-6.388730158730128e-05,-0.0003811115995115,-0.0002899804639804,-0.0002262897435897,-0.0002413457875457
-0.0004553378754578,-0.0001213711843711,-0.0001277396825396,0.000287902002442,-0.000164128083028,-0.0001246185347985,-0.0006066661782661,-9.429999999999968e-05,-0.0003841362393162,-0.0002869594627594,-0.000220255067155,-0.0002322937728937
-0.0004553378754578,-0.0001153032967032,-0.0001246984126984,0.0002848716971916,-0.000164128083028,-0.0001185394627594,-0.0006158119658119,-0.0001338365079365,-0.0003901855189255,-0.0002869594627594,-0.000211203052503,-0.0002232417582417
-0.0004492666178266,-0.0001153032967032,-0.0001277396825396,0.0002818413919413,-0.0001610885714285,-0.0001215789987789,-0.0006310549450549,-0.0001764142857142,-0.0003992594383394,-0.0002869594627594,-0.0002081857142857,-0.0002202244200244
-0.0004492666178266,-0.0001092354090354,-0.0001246984126984,0.000278811086691,-0.0001610885714285,-0.0001154999267399,-0.0006493465201465,-0.0002250746031746,-0.0004174072771672,-0.0002960224664224,-0.0002081857142857,-0.000217207081807
-0.0004644447619047,-0.0001031675213675,-0.0001034095238095,0.0002818413919413,-0.0001793256410256,-0.0001033417826617,-0.0006645894993894,-0.0002767761904761,-0.0004295058363858,-0.0002960224664224,-0.000202151037851,-0.0002051377289377
-0.0004856941636141,-0.0001062014652014,-7.907936507936497e-05,0.0002939626129426,-0.0002036417338217,-9.11836385836386e-05,-0.0006737352869352,-0.0003254365079365,-0.0004416043956043,-0.0002990434676434,-0.0001991336996336,-0.000199103052503
-0.0004887297924297,-0.0001183372405372,-8.82031746031745e-05,0.0003030535286935,-0.0002006022222222,-0.0001033417826617,-0.0006859296703296,-0.0003740968253968,-0.0004597522344322,-0.0003081064713064,-0.0002051683760683,-0.0002051377289377
-0.0004856941636141,-0.0001365409035409,-0.000109492063492,0.0003091141391941,-0.0001884441758241,-0.0001215789987789,-0.000698124053724,-0.0004227571428571,-0.00047790007326,-0.0003201904761904,-0.0002142203907203,-0.000217207081807
-0.0004978366788766,-0.0001608124542124,-0.0001216571428571,0.0003272959706959,-0.0001884441758241,-0.0001398162148962,-0.0007042212454212,-0.0004622936507936,-0.0004930232722832,-0.0003322744810744,-0.000229307081807,-0.0002322937728937
-0.0005099791941391,-0.0001881179487179,-0.0001368634920634,0.0003485081074481,-0.0001854046642246,-0.0001610929670329,-0.0007042212454212,-0.0004987888888888,-0.0005081464713064,-0.0003413374847374,-0.0002413764346764,-0.0002443631257631
-0.000519086080586,-0.0002063216117216,-0.0001459873015873,0.0003606293284493,-0.0001854046642246,-0.0001762906471306,-0.0007103184371184,-0.0005322428571428,-0.0005262943101343,-0.0003534214896214,-0.0002564631257631,-0.0002624671550671
-0.0005251573382173,-0.0002275592185592,-0.0001642349206349,0.0003757808547008,-0.0001793256410256,-0.0001945278632478,-0.000713367032967,-0.0005656968253968,-0.0005414175091575,-0.0003685264957264,-0.0002745671550671,-0.0002805711843711
-0.0005281929670329,-0.0002548647130647,-0.0001855238095238,0.0003909323809523,-0.0001702071062271,-0.0002188441514041,-0.0007164156288156,-0.0005900269841269,-0.0005565407081807,-0.0003836315018315,-0.0002866365079365,-0.0002986752136752
-0.0005342642246642,-0.0002821702075702,-0.0002037714285714,0.0004060839072039,-0.000164128083028,-0.0002431604395604,-0.0007194642246642,-0.0006143571428571,-0.0005746885470085,-0.0003957155067155,-0.0003047405372405,-0.0003197965811965
-0.0005494423687423,-0.0003125096459096,-0.0002189777777777,0.0004303263492063,-0.000164128083028,-0.0002644371916971,-0.0007164156288156,-0.0006326047619047,-0.0005898117460317,-0.0004108205128205,-0.0003198272283272,-0.0003348832722832
-0.0005524779975579,-0.0003246454212454,-0.0002281015873015,0.0004363869597069,-0.0001610885714285,-0.0002765953357753,-0.0007164156288156,-0.0006508523809523,-0.0006019103052503,-0.0004168625152625,-0.0003288792429792,-0.0003469526251526
-0.0005615848840048,-0.0003337472527472,-0.0002281015873015,0.0004454778754578,-0.0001671675946275,-0.0002796348717948,-0.0007164156288156,-0.0006660587301587,-0.0006109842246642,-0.0004259255189255,-0.0003349139194139,-0.0003499699633699
-0.0005646205128205,-0.0003398151404151,-0.0002311428571428,0.0004515384859584,-0.0001671675946275,-0.0002857139438339,-0.0007194642246642,-0.0006751825396825,-0.0006200581440781,-0.0004319675213675,-0.0003409485958485,-0.0003529873015873
-0.0005706917704517,-0.0003489169719169,-0.0002372253968253,0.000457599096459,-0.0001671675946275,-0.000291793015873,-0.0007194642246642,-0.0006843063492063,-0.000629132063492,-0.0004410305250305,-0.0003500006105006,-0.0003620393162393
-0.0005737273992673,-0.0003640866910866,-0.0002493904761904,0.00046669001221,-0.0001610885714285,-0.0003069906959706,-0.0007164156288156,-0.0006964714285714,-0.0006351813431013,-0.0004531145299145,-0.0003620699633699,-0.000377126007326
-0.0005706917704517,-0.0003762224664224,-0.0002645968253968,0.0004727506227106,-0.00015197003663,-0.0003191488400488,-0.0007194642246642,-0.0007086365079365,-0.0006442552625152,-0.0004621775335775,-0.0003741393162393,-0.0003891953601953
-0.0005676561416361,-0.0003853242979242,-0.0002737206349206,0.0004757809279609,-0.000145891013431,-0.0003282674481074,-0.0007225128205128,-0.0007116777777777,-0.0006472799023199,-0.0004651985347985,-0.0003801739926739,-0.0003922126984126
-0.0005797986568986,-0.0003883582417582,-0.000267638095238,0.0004818415384615,-0.0001550095482295,-0.0003282674481074,-0.0007194642246642,-0.0007055952380952,-0.0006442552625152,-0.0004621775335775,-0.0003771566544566,-0.0003891953601953
-0.0005919411721611,-0.000400494017094,-0.000267638095238,0.0004939627594627,-0.0001610885714285,-0.0003343465201465,-0.0007164156288156,-0.0007055952380952,-0.0006442552625152,-0.0004621775335775,-0.0003801739926739,-0.0003922126984126
-0.0005980124297924,-0.0004065619047619,-0.0002645968253968,0.0005000233699633,-0.0001671675946275,-0.0003343465201465,-0.000713367032967,-0.0007086365079365,-0.0006472799023199,-0.0004682195360195,-0.0003801739926739,-0.0003891953601953
-0.0005949768009768,-0.0004095958485958,-0.000267638095238,0.0005000233699633,-0.000164128083028,-0.000337386056166,-0.0007164156288156,-0.0007086365079365,-0.0006472799023199,-0.0004682195360195,-0.0003801739926739,-0.000386178021978
-0.0005949768009768,-0.0004095958485958,-0.0002706793650793,0.0005000233699633,-0.0001610885714285,-0.0003404255921855,-0.000713367032967,-0.0007055952380952,-0.0006472799023199,-0.0004651985347985,-0.0003801739926739,-0.0003831606837606
-0.0005919411721611,-0.0004156637362637,-0.0002828444444444,0.0005030536752136,-0.0001550095482295,-0.0003495442002442,-0.0007103184371184,-0.0006995126984126,-0.0006503045421245,-0.0004682195360195,-0.0003831913308913,-0.0003831606837606
-0.0005889055433455,-0.0004308334554334,-0.0002980507936507,0.0005091142857142,-0.000145891013431,-0.0003647418803418,-0.0007103184371184,-0.0006964714285714,-0.0006563538217338,-0.0004742615384615,-0.0003922433455433,-0.0003922126984126
-0.0005949768009768,-0.0004369013431013,-0.000301092063492,0.0005151748962148,-0.000145891013431,-0.0003677814163614,-0.0007072698412698,-0.0006934301587301,-0.0006563538217338,-0.0004803035409035,-0.000398278021978,-0.0003982473748473
-0.000601048058608,-0.0004369013431013,-0.0002919682539682,0.0005182052014652,-0.0001550095482295,-0.0003647418803418,-0.0007042212454212,-0.0006903888888888,-0.0006563538217338,-0.0004803035409035,-0.000398278021978,-0.00039523003663
-0.0005949768009768,-0.0004338673992673,-0.000301092063492,0.0005121445909645,-0.000145891013431,-0.0003677814163614,-0.0007042212454212,-0.0006873476190476,-0.0006593784615384,-0.0004863455433455,-0.000398278021978,-0.00039523003663
-0.000576763028083,-0.0004399352869352,-0.0003223809523809,0.0005060839804639,-0.0001276539438339,-0.0003799395604395,-0.0007072698412698,-0.0006903888888888,-0.0006654277411477,-0.0004954085470085,-0.0004103473748473,-0.000404282051282
-0.0005797986568986,-0.0004429692307692,-0.0003223809523809,0.0005091142857142,-0.0001276539438339,-0.000382979096459,-0.0007103184371184,-0.0006903888888888,-0.0006684523809523,-0.0004954085470085,-0.0004133647130647,-0.0004072993894993
-0.0005919411721611,-0.0004429692307692,-0.0003102158730158,0.0005151748962148,-0.0001398119902319,-0.00037690002442,-0.0007072698412698,-0.0006843063492063,-0.0006624031013431,-0.0004954085470085,-0.0004133647130647,-0.0004103167277167
-0.0005980124297924,-0.0004369013431013,-0.0002980507936507,0.0005151748962148,-0.0001489305250305,-0.0003677814163614,-0.0007011726495726,-0.0006782238095238,-0.0006593784615384,-0.0004923875457875,-0.0004103473748473,-0.0004012647130647
-0.0006040836874236,-0.0004338673992673,-0.0002858857142857,0.0005182052014652,-0.000158049059829,-0.0003586628083028,-0.000698124053724,-0.0006751825396825,-0.0006563538217338,-0.0004923875457875,-0.00040733003663,-0.0003982473748473
-0.000601048058608,-0.0004308334554334,-0.0002858857142857,0.0005151748962148,-0.000158049059829,-0.0003586628083028,-0.000698124053724,-0.0006721412698412,-0.0006533291819291,-0.0004893665445665,-0.00040733003663,-0.0004012647130647
-0.0005949768009768,-0.0004369013431013,-0.000301092063492,0.0005151748962148,-0.000145891013431,-0.0003677814163614,-0.000698124053724,-0.0006690999999999,-0.0006503045421245,-0.0004893665445665,-0.00040733003663,-0.000404282051282
-0.0005889055433455,-0.0004490371184371,-0.0003193396825396,0.0005182052014652,-0.0001337329670329,-0.000382979096459,-0.0006950754578754,-0.0006630174603174,-0.0006442552625152,-0.0004833245421245,-0.0004043126984126,-0.0004012647130647
-0.0005949768009768,-0.000452071062271,-0.0003132571428571,0.0005212355067155,-0.0001398119902319,-0.000382979096459,-0.0006889782661782,-0.0006538936507936,-0.0006412306227106,-0.0004772825396825,-0.0004012953601953,-0.00039523003663
-0.0005949768009768,-0.0004460031746031,-0.0003132571428571,0.0005182052014652,-0.0001398119902319,-0.0003799395604395,-0.0006889782661782,-0.0006508523809523,-0.0006412306227106,-0.0004772825396825,-0.0004012953601953,-0.0003922126984126
-0.0005919411721611,-0.0004429692307692,-0.0003102158730158,0.0005151748962148,-0.0001398119902319,-0.00037690002442,-0.0006889782661782,-0.0006508523809523,-0.0006412306227106,-0.0004803035409035,-0.000398278021978,-0.0003891953601953
-0.0005949768009768,-0.0004369013431013,-0.0003041333333333,0.0005151748962148,-0.000145891013431,-0.0003708209523809,-0.0006889782661782,-0.0006478111111111,-0.0006382059829059,-0.0004772825396825,-0.0003952606837606,-0.000386178021978
-0.0005949768009768,-0.0004369013431013,-0.000301092063492,0.0005151748962148,-0.000145891013431,-0.0003677814163614,-0.0006889782661782,-0.0006447698412698,-0.0006382059829059,-0.0004803035409035,-0.000398278021978,-0.000386178021978
-0.0005889055433455,-0.0004369013431013,-0.0003041333333333,0.0005121445909645,-0.0001428515018315,-0.0003708209523809,-0.0006889782661782,-0.0006447698412698,-0.0006382059829059,-0.0004772825396825,-0.0003952606837606,-0.0003891953601953
-0.0005858699145299,-0.0004277995115995,-0.0002980507936507,0.0005060839804639,-0.0001428515018315,-0.0003617023443223,-0.0006950754578754,-0.0006417285714285,-0.0006351813431013,-0.0004712405372405,-0.0003922433455433,-0.000386178021978
-0.0005858699145299,-0.0004247655677655,-0.0002980507936507,0.0005030536752136,-0.0001428515018315,-0.0003617023443223,-0.0006950754578754,-0.0006386873015873,-0.0006321567032967,-0.0004682195360195,-0.000389226007326,-0.000386178021978
-0.0005828342857142,-0.0004277995115995,-0.0003041333333333,0.0005030536752136,-0.0001398119902319,-0.0003647418803418,-0.0006950754578754,-0.000635646031746,-0.000629132063492,-0.0004682195360195,-0.000389226007326,-0.0003891953601953
-0.0005797986568986,-0.0004277995115995,-0.0003071746031746,0.0005030536752136,-0.0001367724786324,-0.0003677814163614,-0.0006950754578754,-0.000635646031746,-0.0006261074236874,-0.0004651985347985,-0.000389226007326,-0.0003922126984126
-0.0005797986568986,-0.0004247655677655,-0.000301092063492,0.0005000233699633,-0.0001398119902319,-0.0003617023443223,-0.0006950754578754,-0.000635646031746,-0.0006261074236874,-0.0004621775335775,-0.000389226007326,-0.0003891953601953
-0.0005797986568986,-0.0004126297924297,-0.0002950095238095,0.0004939627594627,-0.0001428515018315,-0.0003525837362637,-0.000698124053724,-0.000635646031746,-0.0006230827838827,-0.0004561355311355,-0.0003831913308913,-0.0003801433455433
-0.0005737273992673,-0.0004095958485958,-0.0002950095238095,0.0004909324542124,-0.0001398119902319,-0.0003525837362637,-0.0007042212454212,-0.000635646031746,-0.0006230827838827,-0.0004531145299145,-0.0003771566544566,-0.0003741086691086
-0.000576763028083,-0.0004126297924297,-0.000301092063492,0.0004939627594627,-0.0001367724786324,-0.0003556232722832,-0.0007072698412698,-0.000635646031746,-0.0006261074236874,-0.0004561355311355,-0.0003801739926739,-0.000377126007326
-0.000576763028083,-0.0004126297924297,-0.0002950095238095,0.0004939627594627,-0.0001398119902319,-0.0003525837362637,-0.0007103184371184,-0.000635646031746,-0.000629132063492,-0.0004591565323565,-0.0003801739926739,-0.0003801433455433
-0.000576763028083,-0.00039746007326,-0.0002858857142857,0.0004848718437118,-0.000145891013431,-0.0003404255921855,-0.0007072698412698,-0.0006386873015873,-0.0006230827838827,-0.0004500935286935,-0.0003771566544566,-0.0003710913308913
-0.0005676561416361,-0.0003944261294261,-0.0002858857142857,0.0004788112332112,-0.0001398119902319,-0.0003404255921855,-0.0007103184371184,-0.000635646031746,-0.0006200581440781,-0.0004470725274725,-0.0003711219780219,-0.0003650566544566
-0.0005615848840048,-0.00039746007326,-0.0002980507936507,0.0004788112332112,-0.0001306934554334,-0.0003465046642246,-0.0007164156288156,-0.000635646031746,-0.0006230827838827,-0.0004470725274725,-0.0003741393162393,-0.0003680739926739
-0.0005585492551892,-0.0004065619047619,-0.0003071746031746,0.0004818415384615,-0.0001246144322344,-0.0003556232722832,-0.0007194642246642,-0.000635646031746,-0.000629132063492,-0.0004500935286935,-0.0003741393162393,-0.0003741086691086
-0.0005615848840048,-0.0004095958485958,-0.0003071746031746,0.0004848718437118,-0.0001276539438339,-0.0003586628083028,-0.0007164156288156,-0.0006386873015873,-0.000629132063492,-0.0004500935286935,-0.0003741393162393,-0.000377126007326
-0.000576763028083,-0.0004065619047619,-0.0002919682539682,0.0004909324542124,-0.0001428515018315,-0.0003495442002442,-0.0007072698412698,-0.0006386873015873,-0.0006261074236874,-0.0004440515262515,-0.0003681046398046,-0.0003680739926739
-0.0005889055433455,-0.0003913921855921,-0.0002615555555555,0.0004879021489621,-0.000164128083028,-0.0003252279120879,-0.0007042212454212,-0.000635646031746,-0.0006200581440781,-0.0004349885225885,-0.0003560352869352,-0.0003469526251526
-0.0005797986568986,-0.0003822903540903,-0.0002585142857142,0.0004788112332112,-0.0001610885714285,-0.0003191488400488,-0.000713367032967,-0.0006386873015873,-0.0006230827838827,-0.0004349885225885,-0.0003560352869352,-0.0003469526251526
-0.0005737273992673,-0.0003853242979242,-0.0002737206349206,0.0004788112332112,-0.0001489305250305,-0.0003282674481074,-0.0007194642246642,-0.0006417285714285,-0.0006230827838827,-0.0004380095238095,-0.0003620699633699,-0.0003560046398046
-0.000576763028083,-0.00039746007326,-0.0002828444444444,0.0004848718437118,-0.000145891013431,-0.0003404255921855,-0.0007164156288156,-0.0006417285714285,-0.0006230827838827,-0.0004380095238095,-0.0003650873015873,-0.0003620393162393
-0.0005737273992673,-0.000400494017094,-0.0002919682539682,0.0004848718437118,-0.0001398119902319,-0.0003465046642246,-0.0007164156288156,-0.0006417285714285,-0.0006261074236874,-0.0004440515262515,-0.0003711219780219,-0.0003650566544566
-0.0005706917704517,-0.000400494017094,-0.0002919682539682,0.0004848718437118,-0.0001398119902319,-0.0003465046642246,-0.0007164156288156,-0.0006447698412698,-0.0006261074236874,-0.0004410305250305,-0.0003711219780219,-0.0003650566544566
-0.0005676561416361,-0.000400494017094,-0.0002919682539682,0.0004818415384615,-0.0001367724786324,-0.0003465046642246,-0.0007225128205128,-0.0006508523809523,-0.0006321567032967,-0.0004440515262515,-0.0003711219780219,-0.0003650566544566
-0.0005646205128205,-0.000400494017094,-0.0002950095238095,0.0004818415384615,-0.0001337329670329,-0.0003465046642246,-0.0007255614163614,-0.0006569349206349,-0.0006382059829059,-0.0004470725274725,-0.0003711219780219,-0.0003650566544566
-0.0005676561416361,-0.0003944261294261,-0.0002858857142857,0.0004788112332112,-0.0001398119902319,-0.0003404255921855,-0.0007225128205128,-0.0006569349206349,-0.0006351813431013,-0.0004440515262515,-0.0003681046398046,-0.0003620393162393
-0.000576763028083,-0.0003913921855921,-0.0002767619047619,0.0004818415384615,-0.0001489305250305,-0.0003343465201465,-0.0007194642246642,-0.0006569349206349,-0.0006351813431013,-0.0004410305250305,-0.0003650873015873,-0.0003560046398046
-0.0005737273992673,-0.0003913921855921,-0.0002767619047619,0.0004818415384615,-0.0001489305250305,-0.0003343465201465,-0.0007225128205128,-0.0006569349206349,-0.0006351813431013,-0.0004410305250305,-0.0003650873015873,-0.0003560046398046
-0.0005737273992673,-0.0003944261294261,-0.0002828444444444,0.0004818415384615,-0.000145891013431,-0.000337386056166,-0.0007255614163614,-0.0006599761904761,-0.0006351813431013,-0.0004440515262515,-0.0003681046398046,-0.0003590219780219
-0.000576763028083,-0.00039746007326,-0.0002828444444444,0.0004848718437118,-0.000145891013431,-0.0003404255921855,-0.0007225128205128,-0.0006569349206349,-0.0006321567032967,-0.0004410305250305,-0.0003681046398046,-0.0003560046398046
-0.0005828342857142,-0.000400494017094,-0.0002798031746031,0.0004909324542124,-0.00015197003663,-0.0003404255921855,-0.0007225128205128,-0.0006569349206349,-0.0006321567032967,-0.0004440515262515,-0.0003681046398046,-0.0003529873015873
-0.0005828342857142,-0.000400494017094,-0.0002798031746031,0.0004909324542124,-0.00015197003663,-0.0003404255921855,-0.0007225128205128,-0.0006599761904761,-0.0006321567032967,-0.0004440515262515,-0.0003711219780219,-0.0003560046398046
-0.0005797986568986,-0.00039746007326,-0.0002767619047619,0.0004879021489621,-0.00015197003663,-0.000337386056166,-0.0007225128205128,-0.0006599761904761,-0.0006351813431013,-0.0004440515262515,-0.0003681046398046,-0.0003529873015873
-0.000576763028083,-0.00039746007326,-0.0002767619047619,0.0004848718437118,-0.0001489305250305,-0.000337386056166,-0.00072861001221,-0.0006599761904761,-0.0006382059829059,-0.0004410305250305,-0.0003681046398046,-0.0003529873015873
-0.0005706917704517,-0.000400494017094,-0.0002889269841269,0.0004848718437118,-0.0001398119902319,-0.0003434651282051,-0.0007377557997557,-0.0006660587301587,-0.0006442552625152,-0.0004470725274725,-0.0003741393162393,-0.0003620393162393
-0.0005646205128205,-0.0004035279609279,-0.000301092063492,0.0004818415384615,-0.0001306934554334,-0.0003525837362637,-0.0007408043956043,-0.0006721412698412,-0.0006533291819291,-0.0004591565323565,-0.0003862086691086,-0.0003710913308913
-0.0005706917704517,-0.00039746007326,-0.0002919682539682,0.0004818415384615,-0.0001398119902319,-0.0003434651282051,-0.0007408043956043,-0.0006721412698412,-0.0006503045421245,-0.0004621775335775,-0.0003831913308913,-0.0003650566544566
-0.000576763028083,-0.0003883582417582,-0.0002737206349206,0.0004818415384615,-0.00015197003663,-0.0003313069841269,-0.0007347072039072,-0.0006690999999999,-0.0006412306227106,-0.0004531145299145,-0.0003741393162393,-0.0003529873015873
-0.0005797986568986,-0.0003883582417582,-0.0002706793650793,0.0004818415384615,-0.0001550095482295,-0.0003282674481074,-0.0007347072039072,-0.0006690999999999,-0.0006412306227106,-0.0004470725274725,-0.0003681046398046,-0.0003469526251526
-0.0005797986568986,-0.0003913921855921,-0.0002706793650793,0.0004848718437118,-0.0001550095482295,-0.0003313069841269,-0.0007347072039072,-0.0006660587301587,-0.0006412306227106,-0.0004440515262515,-0.0003681046398046,-0.0003469526251526
-0.0005828342857142,-0.00039746007326,-0.0002767619047619,0.0004879021489621,-0.00015197003663,-0.000337386056166,-0.0007316586080586,-0.0006690999999999,-0.0006442552625152,-0.0004470725274725,-0.0003711219780219,-0.0003499699633699
-0.0005919411721611,-0.00039746007326,-0.0002706793650793,0.0004939627594627,-0.0001610885714285,-0.0003343465201465,-0.00072861001221,-0.0006721412698412,-0.0006412306227106,-0.0004440515262515,-0.0003681046398046,-0.0003469526251526
-0.0005858699145299,-0.00039746007326,-0.0002737206349206,0.0004909324542124,-0.0001550095482295,-0.0003343465201465,-0.0007316586080586,-0.0006690999999999,-0.0006412306227106,-0.0004470725274725,-0.0003711219780219,-0.0003499699633699
-0.0005737273992673,-0.00039746007326,-0.0002858857142857,0.0004848718437118,-0.0001428515018315,-0.0003404255921855,-0.0007377557997557,-0.0006721412698412,-0.0006472799023199,-0.0004531145299145,-0.0003801739926739,-0.0003560046398046
-0.0005646205128205,-0.0004035279609279,-0.000301092063492,0.0004818415384615,-0.0001306934554334,-0.0003525837362637,-0.0007408043956043,-0.0006751825396825,-0.0006563538217338,-0.0004621775335775,-0.000389226007326,-0.0003650566544566
-0.0005676561416361,-0.0004035279609279,-0.0002950095238095,0.0004848718437118,-0.0001367724786324,-0.0003495442002442,-0.0007408043956043,-0.0006782238095238,-0.0006563538217338,-0.0004621775335775,-0.0003922433455433,-0.0003650566544566
-0.0005858699145299,-0.0004035279609279,-0.0002767619047619,0.0004939627594627,-0.0001550095482295,-0.0003404255921855,-0.0007347072039072,-0.0006782238095238,-0.0006533291819291,-0.0004591565323565,-0.0003831913308913,-0.0003560046398046
-0.0005889055433455,-0.0003944261294261,-0.0002645968253968,0.0004909324542124,-0.0001610885714285,-0.0003282674481074,-0.0007316586080586,-0.0006721412698412,-0.0006472799023199,-0.0004500935286935,-0.0003741393162393,-0.0003439352869352
-0.0005828342857142,-0.0003944261294261,-0.0002706793650793,0.0004879021489621,-0.0001550095482295,-0.0003313069841269,-0.0007377557997557,-0.0006751825396825,-0.0006472799023199,-0.0004500935286935,-0.0003741393162393,-0.0003439352869352
-0.000576763028083,-0.00039746007326,-0.0002828444444444,0.0004848718437118,-0.000145891013431,-0.0003404255921855,-0.0007377557997557,-0.0006782238095238,-0.0006503045421245,-0.0004500935286935,-0.0003741393162393,-0.0003439352869352
-0.000576763028083,-0.0004035279609279,-0.0002858857142857,0.0004879021489621,-0.000145891013431,-0.0003434651282051,-0.0007347072039072,-0.0006782238095238,-0.0006533291819291,-0.0004531145299145,-0.0003771566544566,-0.0003469526251526
-0.0005737273992673,-0.0004095958485958,-0.0002919682539682,0.0004909324542124,-0.0001398119902319,-0.0003495442002442,-0.0007347072039072,-0.0006751825396825,-0.0006533291819291,-0.0004561355311355,-0.0003771566544566,-0.0003499699633699
-0.0005706917704517,-0.0004065619047619,-0.0002980507936507,0.0004879021489621,-0.0001367724786324,-0.0003525837362637,-0.0007347072039072,-0.0006751825396825,-0.0006563538217338,-0.0004561355311355,-0.0003801739926739,-0.0003499699633699
-0.0005797986568986,-0.00039746007326,-0.0002798031746031,0.0004879021489621,-0.0001489305250305,-0.000337386056166,-0.0007347072039072,-0.0006751825396825,-0.0006503045421245,-0.0004531145299145,-0.0003741393162393,-0.0003379006105006
-0.0005797986568986,-0.000400494017094,-0.0002828444444444,0.0004879021489621,-0.0001489305250305,-0.0003404255921855,-0.0007377557997557,-0.0006751825396825,-0.0006563538217338,-0.0004561355311355,-0.0003771566544566,-0.0003409179487179
-0.0005797986568986,-0.0004065619047619,-0.0002889269841269,0.0004909324542124,-0.000145891013431,-0.0003465046642246,-0.0007347072039072,-0.0006721412698412,-0.0006593784615384,-0.0004591565323565,-0.0003801739926739,-0.0003439352869352
-0.000576763028083,-0.0004095958485958,-0.0002919682539682,0.0004909324542124,-0.0001428515018315,-0.0003495442002442,-0.0007316586080586,-0.0006721412698412,-0.0006593784615384,-0.0004561355311355,-0.0003801739926739,-0.0003409179487179
-0.000576763028083,-0.0004095958485958,-0.0002950095238095,0.0004909324542124,-0.0001398119902319,-0.0003525837362637,-0.0007316586080586,-0.0006751825396825,-0.0006533291819291,-0.0004500935286935,-0.0003771566544566,-0.0003348832722832
-0.0005737273992673,-0.0004126297924297,-0.0002980507936507,0.0004909324542124,-0.0001367724786324,-0.0003556232722832,-0.0007347072039072,-0.0006751825396825,-0.0006533291819291,-0.0004500935286935,-0.0003741393162393,-0.0003348832722832
-0.000576763028083,-0.0004156637362637,-0.0002980507936507,0.0004939627594627,-0.0001398119902319,-0.0003556232722832,-0.0007377557997557,-0.0006782238095238,-0.0006624031013431,-0.0004561355311355,-0.0003831913308913,-0.0003409179487179
-0.000576763028083,-0.0004156637362637,-0.000301092063492,0.0004939627594627,-0.0001367724786324,-0.0003586628083028,-0.0007408043956043,-0.000681265079365,-0.0006684523809523,-0.0004651985347985,-0.0003862086691086,-0.0003469526251526
-0.0005737273992673,-0.0004126297924297,-0.0002980507936507,0.0004909324542124,-0.0001367724786324,-0.0003556232722832,-0.0007377557997557,-0.000681265079365,-0.0006654277411477,-0.0004591565323565,-0.0003862086691086,-0.0003469526251526
-0.0005737273992673,-0.0004156637362637,-0.000301092063492,0.0004939627594627,-0.0001367724786324,-0.0003586628083028,-0.0007347072039072,-0.0006751825396825,-0.0006563538217338,-0.0004561355311355,-0.0003831913308913,-0.0003409179487179
-0.000576763028083,-0.0004308334554334,-0.0003132571428571,0.0005030536752136,-0.0001306934554334,-0.0003708209523809,-0.0007347072039072,-0.0006751825396825,-0.0006563538217338,-0.0004591565323565,-0.0003831913308913,-0.0003409179487179
-0.0005737273992673,-0.0004369013431013,-0.0003223809523809,0.0005030536752136,-0.0001246144322344,-0.0003799395604395,-0.0007316586080586,-0.0006751825396825,-0.0006624031013431,-0.0004651985347985,-0.000389226007326,-0.0003439352869352
-0.0005706917704517,-0.0004277995115995,-0.0003162984126984,0.000496993064713,-0.0001276539438339,-0.0003708209523809,-0.0007347072039072,-0.0006782238095238,-0.0006654277411477,-0.0004682195360195,-0.0003922433455433,-0.0003409179487179
-0.000576763028083,-0.0004156637362637,-0.000301092063492,0.0004939627594627,-0.0001367724786324,-0.0003586628083028,-0.0007347072039072,-0.000681265079365,-0.0006684523809523,-0.0004712405372405,-0.0003922433455433,-0.0003409179487179
-0.000576763028083,-0.0004126297924297,-0.0002980507936507,0.0004939627594627,-0.0001398119902319,-0.0003556232722832,-0.0007347072039072,-0.000681265079365,-0.0006654277411477,-0.0004712405372405,-0.0003922433455433,-0.0003409179487179
-0.0005706917704517,-0.0004186976800976,-0.0003071746031746,0.0004939627594627,-0.0001306934554334,-0.0003617023443223,-0.0007347072039072,-0.0006782238095238,-0.0006624031013431,-0.0004682195360195,-0.0003922433455433,-0.0003409179487179
-0.0005706917704517,-0.0004277995115995,-0.0003162984126984,0.000496993064713,-0.0001276539438339,-0.0003708209523809,-0.0007347072039072,-0.0006751825396825,-0.0006624031013431,-0.0004651985347985,-0.0003922433455433,-0.0003379006105006
-0.0005706917704517,-0.0004308334554334,-0.0003162984126984,0.0005000233699633,-0.0001276539438339,-0.0003738604884004,-0.0007347072039072,-0.000681265079365,-0.0006654277411477,-0.0004682195360195,-0.0003952606837606,-0.0003409179487179
-0.0005797986568986,-0.0004217316239316,-0.000301092063492,0.0005000233699633,-0.0001398119902319,-0.0003617023443223,-0.0007347072039072,-0.000681265079365,-0.0006654277411477,-0.0004682195360195,-0.0003922433455433,-0.0003348832722832
-0.0005828342857142,-0.0004095958485958,-0.0002889269841269,0.0004939627594627,-0.000145891013431,-0.0003495442002442,-0.0007377557997557,-0.000681265079365,-0.0006654277411477,-0.0004651985347985,-0.000389226007326,-0.0003288485958485
-0.000576763028083,-0.0004126297924297,-0.0002950095238095,0.0004939627594627,-0.0001398119902319,-0.0003525837362637,-0.0007408043956043,-0.0006782238095238,-0.0006624031013431,-0.0004621775335775,-0.000389226007326,-0.0003288485958485
-0.000576763028083,-0.0004277995115995,-0.0003071746031746,0.0005000233699633,-0.0001337329670329,-0.0003677814163614,-0.0007347072039072,-0.0006721412698412,-0.0006563538217338,-0.0004561355311355,-0.000389226007326,-0.0003288485958485
-0.000576763028083,-0.0004369013431013,-0.0003162984126984,0.0005060839804639,-0.0001306934554334,-0.00037690002442,-0.00072861001221,-0.0006721412698412,-0.0006563538217338,-0.0004561355311355,-0.000389226007326,-0.0003288485958485
-0.0005737273992673,-0.0004369013431013,-0.0003193396825396,0.0005030536752136,-0.0001276539438339,-0.00037690002442,-0.0007255614163614,-0.0006751825396825,-0.0006593784615384,-0.0004591565323565,-0.000389226007326,-0.0003318659340659
-0.0005737273992673,-0.0004308334554334,-0.0003193396825396,0.0005000233699633,-0.0001276539438339,-0.0003738604884004,-0.00072861001221,-0.0006782238095238,-0.0006624031013431,-0.0004651985347985,-0.000398278021978,-0.0003379006105006
-0.0005706917704517,-0.0004277995115995,-0.0003193396825396,0.000496993064713,-0.0001246144322344,-0.0003738604884004,-0.0007316586080586,-0.0006782238095238,-0.0006624031013431,-0.0004712405372405,-0.000398278021978,-0.0003379006105006
-0.0005737273992673,-0.0004308334554334,-0.0003193396825396,0.0005000233699633,-0.0001276539438339,-0.0003738604884004,-0.00072861001221,-0.000681265079365,-0.0006654277411477,-0.0004682195360195,-0.000398278021978,-0.0003379006105006
-0.0005858699145299,-0.0004369013431013,-0.0003102158730158,0.0005091142857142,-0.0001367724786324,-0.0003738604884004,-0.0007194642246642,-0.000681265079365,-0.0006593784615384,-0.0004651985347985,-0.0003952606837606,-0.0003348832722832
-0.0005858699145299,-0.0004399352869352,-0.0003132571428571,0.0005121445909645,-0.0001367724786324,-0.00037690002442,-0.0007164156288156,-0.0006782238095238,-0.0006563538217338,-0.0004651985347985,-0.0003922433455433,-0.0003318659340659
-0.000576763028083,-0.0004399352869352,-0.0003223809523809,0.0005060839804639,-0.0001276539438339,-0.0003799395604395,-0.0007194642246642,-0.0006782238095238,-0.0006654277411477,-0.0004682195360195,-0.000398278021978,-0.0003348832722832
-0.0005706917704517,-0.0004338673992673,-0.0003223809523809,0.0005000233699633,-0.0001246144322344,-0.00037690002442,-0.00072861001221,-0.000681265079365,-0.000671477020757,-0.0004712405372405,-0.0004012953601953,-0.0003379006105006
-0.0005737273992673,-0.0004277995115995,-0.0003132571428571,0.0005000233699633,-0.0001306934554334,-0.0003708209523809,-0.00072861001221,-0.0006873476190476,-0.000671477020757,-0.0004742615384615,-0.0004012953601953,-0.0003379006105006
-0.0005828342857142,-0.0004277995115995,-0.0003041333333333,0.0005030536752136,-0.0001398119902319,-0.0003647418803418,-0.0007225128205128,-0.0006843063492063,-0.0006654277411477,-0.0004712405372405,-0.0004012953601953,-0.0003318659340659
-0.0005828342857142,-0.0004308334554334,-0.0003071746031746,0.0005060839804639,-0.0001367724786324,-0.0003677814163614,-0.0007164156288156,-0.000681265079365,-0.0006563538217338,-0.0004621775335775,-0.0003952606837606,-0.0003258312576312
-0.000576763028083,-0.0004277995115995,-0.0003102158730158,0.0005000233699633,-0.0001337329670329,-0.0003677814163614,-0.0007194642246642,-0.0006782238095238,-0.0006503045421245,-0.0004591565323565,-0.000389226007326,-0.0003197965811965
-0.0005706917704517,-0.0004247655677655,-0.0003132571428571,0.000496993064713,-0.0001276539438339,-0.0003677814163614,-0.0007225128205128,-0.0006782238095238,-0.0006533291819291,-0.0004591565323565,-0.000389226007326,-0.0003197965811965
-0.0005676561416361,-0.0004277995115995,-0.0003193396825396,0.000496993064713,-0.0001246144322344,-0.0003738604884004,-0.00072861001221,-0.000681265079365,-0.0006624031013431,-0.0004651985347985,-0.0003952606837606,-0.0003258312576312
-0.0005706917704517,-0.0004247655677655,-0.0003132571428571,0.000496993064713,-0.0001276539438339,-0.0003677814163614,-0.00072861001221,-0.0006873476190476,-0.0006654277411477,-0.0004712405372405,-0.000398278021978,-0.0003318659340659
-0.0005737273992673,-0.0004217316239316,-0.0003071746031746,0.000496993064713,-0.0001337329670329,-0.0003647418803418,-0.00072861001221,-0.0006873476190476,-0.0006654277411477,-0.0004682195360195,-0.0003952606837606,-0.0003288485958485
-0.0005737273992673,-0.0004247655677655,-0.0003102158730158,0.000496993064713,-0.0001306934554334,-0.0003677814163614,-0.00072861001221,-0.0006873476190476,-0.0006654277411477,-0.0004682195360195,-0.000398278021978,-0.0003318659340659
-0.0005706917704517,-0.0004217316239316,-0.0003102158730158,0.0004939627594627,-0.0001306934554334,-0.0003647418803418,-0.00072861001221,-0.0006843063492063,-0.0006654277411477,-0.0004651985347985,-0.000398278021978,-0.0003318659340659
-0.0005676561416361,-0.0004277995115995,-0.0003193396825396,0.000496993064713,-0.0001246144322344,-0.0003738604884004,-0.00072861001221,-0.000681265079365,-0.0006654277411477,-0.0004651985347985,-0.000398278021978,-0.0003348832722832
-0.0005676561416361,-0.0004399352869352,-0.0003284634920634,0.0005030536752136,-0.0001185354090354,-0.000382979096459,-0.0007225128205128,-0.0006843063492063,-0.0006624031013431,-0.0004682195360195,-0.0004043126984126,-0.0003379006105006
-0.000576763028083,-0.0004369013431013,-0.0003193396825396,0.0005060839804639,-0.0001276539438339,-0.00037690002442,-0.0007194642246642,-0.0006873476190476,-0.0006624031013431,-0.0004682195360195,-0.000398278021978,-0.0003288485958485
-0.0005737273992673,-0.0004277995115995,-0.0003132571428571,0.0005000233699633,-0.0001306934554334,-0.0003708209523809,-0.0007255614163614,-0.000681265079365,-0.0006593784615384,-0.0004591565323565,-0.0003922433455433,-0.0003228139194139
-0.0005676561416361,-0.0004247655677655,-0.0003162984126984,0.0004939627594627,-0.0001246144322344,-0.0003708209523809,-0.00072861001221,-0.000681265079365,-0.0006624031013431,-0.0004621775335775,-0.0003952606837606,-0.0003288485958485
-0.0005676561416361,-0.0004217316239316,-0.0003162984126984,0.0004939627594627,-0.0001246144322344,-0.0003677814163614,-0.0007316586080586,-0.0006843063492063,-0.0006684523809523,-0.0004682195360195,-0.0004012953601953,-0.0003348832722832
-0.0005706917704517,-0.0004156637362637,-0.0003071746031746,0.0004909324542124,-0.0001306934554334,-0.0003617023443223,-0.00072861001221,-0.0006873476190476,-0.0006684523809523,-0.0004712405372405,-0.0004012953601953,-0.0003318659340659
-0.0005737273992673,-0.0004065619047619,-0.0002950095238095,0.0004879021489621,-0.0001398119902319,-0.0003495442002442,-0.00072861001221,-0.0006903888888888,-0.0006654277411477,-0.0004712405372405,-0.000398278021978,-0.0003288485958485
-0.0005706917704517,-0.0004065619047619,-0.0002950095238095,0.0004879021489621,-0.0001367724786324,-0.0003495442002442,-0.00072861001221,-0.0006903888888888,-0.0006654277411477,-0.0004682195360195,-0.0003952606837606,-0.0003318659340659
-0.0005676561416361,-0.0004217316239316,-0.0003102158730158,0.0004939627594627,-0.0001276539438339,-0.0003647418803418,-0.00072861001221,-0.0006873476190476,-0.0006624031013431,-0.0004651985347985,-0.0003952606837606,-0.0003288485958485
-0.0005615848840048,-0.0004338673992673,-0.0003284634920634,0.000496993064713,-0.0001154958974358,-0.0003799395604395,-0.00072861001221,-0.0006843063492063,-0.0006624031013431,-0.0004591565323565,-0.000398278021978,-0.0003318659340659
-0.0005615848840048,-0.0004369013431013,-0.000334546031746,0.000496993064713,-0.0001124563858363,-0.0003860186324786,-0.0007255614163614,-0.0006843063492063,-0.0006624031013431,-0.0004591565323565,-0.0003952606837606,-0.0003348832722832
-0.0005646205128205,-0.0004338673992673,-0.0003284634920634,0.000496993064713,-0.0001185354090354,-0.0003799395604395,-0.0007225128205128,-0.0006843063492063,-0.0006654277411477,-0.0004621775335775,-0.0003952606837606,-0.0003348832722832
-0.0005676561416361,-0.0004156637362637,-0.0003132571428571,0.0004909324542124,-0.0001276539438339,-0.0003647418803418,-0.0007225128205128,-0.0006843063492063,-0.0006624031013431,-0.0004621775335775,-0.0003922433455433,-0.0003318659340659
-0.0005646205128205,-0.0004065619047619,-0.000301092063492,0.0004848718437118,-0.0001306934554334,-0.0003525837362637,-0.0007225128205128,-0.000681265079365,-0.0006593784615384,-0.0004591565323565,-0.0003922433455433,-0.0003288485958485
-0.0005646205128205,-0.0004095958485958,-0.0003071746031746,0.0004848718437118,-0.0001276539438339,-0.0003586628083028,-0.0007194642246642,-0.0006721412698412,-0.0006563538217338,-0.0004591565323565,-0.0003922433455433,-0.0003288485958485
-0.0005615848840048,-0.0004156637362637,-0.0003132571428571,0.0004879021489621,-0.0001246144322344,-0.0003647418803418,-0.0007164156288156,-0.0006690999999999,-0.0006593784615384,-0.0004591565323565,-0.0003922433455433,-0.0003318659340659
-0.0005585492551892,-0.0004065619047619,-0.0003041333333333,0.0004818415384615,-0.0001276539438339,-0.0003556232722832,-0.0007164156288156,-0.0006690999999999,-0.0006654277411477,-0.0004621775335775,-0.0003952606837606,-0.0003318659340659
-0.0005524779975579,-0.0003944261294261,-0.000301092063492,0.0004727506227106,-0.0001246144322344,-0.0003465046642246,-0.000713367032967,-0.0006660587301587,-0.0006624031013431,-0.0004591565323565,-0.0003922433455433,-0.0003288485958485
-0.0005494423687423,-0.00039746007326,-0.0003071746031746,0.0004727506227106,-0.0001215749206349,-0.0003525837362637,-0.0007072698412698,-0.0006569349206349,-0.0006593784615384,-0.0004561355311355,-0.000389226007326,-0.0003258312576312
-0.0005372998534798,-0.00039746007326,-0.0003223809523809,0.00046669001221,-0.0001063773626373,-0.0003586628083028,-0.0007042212454212,-0.0006478111111111,-0.0006503045421245,-0.0004470725274725,-0.0003862086691086,-0.0003258312576312
-0.0005251573382173,-0.0003822903540903,-0.0003193396825396,0.0004515384859584,-0.0001033378510378,-0.0003495442002442,-0.0007011726495726,-0.0006386873015873,-0.0006412306227106,-0.0004380095238095,-0.0003801739926739,-0.0003228139194139
-0.000519086080586,-0.0003640866910866,-0.0003041333333333,0.0004394172649572,-0.0001063773626373,-0.0003343465201465,-0.0006920268620268,-0.0006234809523809,-0.000629132063492,-0.0004259255189255,-0.0003711219780219,-0.0003137619047619
-0.0005160504517704,-0.0003640866910866,-0.0003071746031746,0.0004394172649572,-0.0001033378510378,-0.0003343465201465,-0.0006859296703296,-0.0006113158730158,-0.0006230827838827,-0.0004229045177045,-0.0003681046398046,-0.0003137619047619
-0.0005160504517704,-0.0003792564102564,-0.0003254222222222,0.0004454778754578,-9.421931623931596e-05,-0.0003525837362637,-0.000698124053724,-0.0006173984126984,-0.0006351813431013,-0.0004289465201465,-0.0003741393162393,-0.0003197965811965
-0.0005160504517704,-0.000400494017094,-0.0003436698412698,0.000457599096459,-8.510078144078116e-05,-0.0003708209523809,-0.0007103184371184,-0.0006295634920634,-0.0006503045421245,-0.0004410305250305,-0.0003831913308913,-0.0003258312576312
-0.0005312285958485,-0.0004247655677655,-0.0003527936507936,0.0004757809279609,-8.814029304029276e-05,-0.0003890581684981,-0.0007072698412698,-0.0006326047619047,-0.0006593784615384,-0.0004531145299145,-0.0003952606837606,-0.0003379006105006
-0.0005372998534798,-0.0004308334554334,-0.0003527936507936,0.0004818415384615,-9.117980463980436e-05,-0.0003920977045177,-0.0007072698412698,-0.0006326047619047,-0.0006624031013431,-0.0004561355311355,-0.0004043126984126,-0.0003439352869352
-0.0005342642246642,-0.0004065619047619,-0.0003315047619047,0.0004697203174603,-0.0001002983394383,-0.0003677814163614,-0.0007255614163614,-0.0006478111111111,-0.0006624031013431,-0.0004561355311355,-0.0004012953601953,-0.0003348832722832
-0.0005342642246642,-0.000400494017094,-0.0003254222222222,0.00046669001221,-0.0001033378510378,-0.0003617023443223,-0.0007469015873015,-0.0006721412698412,-0.0006684523809523,-0.0004591565323565,-0.000398278021978,-0.0003258312576312
-0.0005372998534798,-0.0004247655677655,-0.0003467111111111,0.0004788112332112,-9.421931623931596e-05,-0.0003860186324786,-0.0007499501831501,-0.0006843063492063,-0.0006775263003663,-0.0004651985347985,-0.0004012953601953,-0.0003288485958485
-0.0005342642246642,-0.0004399352869352,-0.0003649587301587,0.0004848718437118,-8.510078144078116e-05,-0.0004012163125763,-0.0007499501831501,-0.0006873476190476,-0.0006896248595848,-0.0004712405372405,-0.0004103473748473,-0.0003439352869352
-0.0005342642246642,-0.0004369013431013,-0.0003588761904761,0.0004848718437118,-8.814029304029276e-05,-0.0003981767765567,-0.0007529987789987,-0.0006873476190476,-0.0006956741391941,-0.0004742615384615,-0.0004103473748473,-0.0003409179487179
-0.0005372998534798,-0.0004308334554334,-0.0003527936507936,0.0004818415384615,-9.117980463980436e-05,-0.0003920977045177,-0.0007529987789987,-0.0006903888888888,-0.0006956741391941,-0.0004772825396825,-0.0004103473748473,-0.0003379006105006
-0.0005403354822954,-0.0004429692307692,-0.0003619174603174,0.0004909324542124,-8.814029304029276e-05,-0.0004012163125763,-0.0007560473748473,-0.0006934301587301,-0.0006986987789987,-0.0004803035409035,-0.000416382051282,-0.0003409179487179
-0.0005464067399267,-0.0004581389499389,-0.0003710412698412,0.0005000233699633,-8.814029304029276e-05,-0.0004133744566544,-0.0007499501831501,-0.0006964714285714,-0.000704748058608,-0.0004863455433455,-0.000425434065934,-0.0003499699633699
-0.0005706917704517,-0.0004611728937728,-0.0003467111111111,0.0005151748962148,-0.0001124563858363,-0.0004042558485958,-0.0007408043956043,-0.0007055952380952,-0.0007077726984126,-0.0004923875457875,-0.0004284514041514,-0.0003529873015873
-0.0005919411721611,-0.000455105006105,-0.0003284634920634,0.0005212355067155,-0.0001306934554334,-0.0003920977045177,-0.0007316586080586,-0.0007025539682539,-0.000704748058608,-0.0004893665445665,-0.0004284514041514,-0.0003560046398046
-0.0005919411721611,-0.0004642068376068,-0.000334546031746,0.0005272961172161,-0.0001276539438339,-0.0003981767765567,-0.00072861001221,-0.0007025539682539,-0.0006986987789987,-0.0004893665445665,-0.000434486080586,-0.0003590219780219
-0.0005858699145299,-0.0004763426129426,-0.0003467111111111,0.0005303264224664,-0.0001185354090354,-0.0004103349206349,-0.0007316586080586,-0.0007055952380952,-0.0006986987789987,-0.0004923875457875,-0.000434486080586,-0.0003590219780219
-0.0005858699145299,-0.0004763426129426,-0.0003497523809523,0.0005303264224664,-0.0001185354090354,-0.0004133744566544,-0.0007316586080586,-0.0007025539682539,-0.0006986987789987,-0.0004893665445665,-0.0004314687423687,-0.0003590219780219
-0.0005797986568986,-0.0004733086691086,-0.0003527936507936,0.0005242658119658,-0.0001124563858363,-0.0004133744566544,-0.0007347072039072,-0.0007025539682539,-0.0006986987789987,-0.0004893665445665,-0.0004314687423687,-0.0003590219780219
-0.000576763028083,-0.0004702747252747,-0.0003527936507936,0.0005212355067155,-0.0001124563858363,-0.0004103349206349,-0.0007377557997557,-0.0007055952380952,-0.0007017234188034,-0.0004923875457875,-0.0004314687423687,-0.0003560046398046
-0.0005737273992673,-0.0004733086691086,-0.0003588761904761,0.0005212355067155,-0.0001063773626373,-0.0004164139926739,-0.0007377557997557,-0.0007055952380952,-0.0006986987789987,-0.0004923875457875,-0.000434486080586,-0.0003560046398046
-0.0005676561416361,-0.0004733086691086,-0.0003619174603174,0.0005182052014652,-0.0001033378510378,-0.0004164139926739,-0.0007408043956043,-0.0007025539682539,-0.0007017234188034,-0.0004893665445665,-0.000434486080586,-0.0003590219780219
-0.000576763028083,-0.0004611728937728,-0.0003406285714285,0.0005182052014652,-0.0001185354090354,-0.0004012163125763,-0.0007377557997557,-0.0006995126984126,-0.0006926494993894,-0.0004803035409035,-0.000425434065934,-0.0003560046398046
-0.0005889055433455,-0.000455105006105,-0.0003254222222222,0.0005212355067155,-0.0001306934554334,-0.0003890581684981,-0.0007347072039072,-0.0006934301587301,-0.0006775263003663,-0.0004682195360195,-0.000416382051282,-0.0003499699633699
-0.0005858699145299,-0.000452071062271,-0.0003284634920634,0.0005182052014652,-0.0001276539438339,-0.0003890581684981,-0.0007347072039072,-0.0006934301587301,-0.0006745016605616,-0.0004651985347985,-0.000416382051282,-0.0003499699633699
-0.0005828342857142,-0.000452071062271,-0.0003284634920634,0.0005151748962148,-0.0001276539438339,-0.0003890581684981,-0.0007377557997557,-0.0006934301587301,-0.000671477020757,-0.0004591565323565,-0.0004133647130647,-0.0003439352869352
-0.0005828342857142,-0.000452071062271,-0.0003315047619047,0.0005151748962148,-0.0001246144322344,-0.0003920977045177,-0.0007438529914529,-0.0006873476190476,-0.0006684523809523,-0.0004561355311355,-0.0004103473748473,-0.0003469526251526
-0.000576763028083,-0.000455105006105,-0.0003375873015873,0.0005151748962148,-0.0001185354090354,-0.0003951372405372,-0.0007347072039072,-0.0006538936507936,-0.0006382059829059,-0.0004531145299145,-0.000425434065934,-0.0003650566544566
-0.000576763028083,-0.0004186976800976,-0.0003041333333333,0.000496993064713,-0.0001367724786324,-0.0003617023443223,-0.0007225128205128,-0.0006113158730158,-0.0005746885470085,-0.0004259255189255,-0.000416382051282,-0.0003680739926739
-0.0005646205128205,-0.0002973399267399,-0.0001946476190476,0.0004303263492063,-0.0001854046642246,-0.0002461999755799,-0.0007316586080586,-0.0005413666666666,-0.0004748754334554,-0.0003443584859584,-0.0003530179487179,-0.0003258312576312
-0.000494801050061,-0.0001001335775335,-6.995555555555546e-05,0.0002969929181929,-0.0002127602686202,-8.510456654456658e-05,-0.0007804361416361,-0.0004136333333333,-0.0003145695238095,-0.0001782034188034,-0.0002262897435897,-0.0002413457875457
-0.0003551621245421,0.0001547177045177,3.9530158730158814e-05,0.000100023076923,-0.0001975627106227,9.72675946275946e-05,-0.0008749426129426,-0.000331519047619,-0.0001179679365079,6.951868131868079e-05,-2.412808302808318e-05,-9.651355311355373e-05
-0.0001882025396825,0.0004945194139194,0.0002128825396825,-0.0001514922588522,-0.0002006022222222,0.0003525886202686,-0.0010670041514041,-0.0005018301587301,5.443653235653228e-05,0.0003776608058608,0.0002836404151404,0.0001629775335775
-2.1242954822955094e-05,0.0008252192918192,0.0003801523809523,-0.0003999772893772,-0.0002006022222222,0.0006018305738705,-0.0013596693528693,-0.0008485349206349,0.0001361018070818,0.0007039289377289,0.0006336516483516,0.0004858327228327
0.0001214315995115,0.0010831045177045,0.0004926793650793,-0.0005999774358974,-0.0001854046642246,0.0007872422710622,-0.0017041606837606,-0.0012469412698412,6.65350915750915e-05,0.000927483028083,0.0009293507936507,0.0007936012210012
0.0002003579487179,0.0011680549450549,0.0004987619047619,-0.0006817956776556,-0.0001489305250305,0.0008328353113553,-0.0019510969474969,-0.0015297793650793,-0.0001149432967032,0.000909357020757,0.0010168536019536,0.0009625721611721
0.000109289084249,0.0007645404151404,0.0001885523809523,-0.0004363409523809,-3.950810744810717e-05,0.0004772095970695,-0.0019175623931623,-0.0016544714285714,-0.0004899986324786,0.0004652698412698,0.0006939984126984,0.0007936012210012
-0.0001608818803418,0.0001850571428571,-0.0001155746031746,-1.209821733821731e-05,-2.1271037851037568e-05,3.343733821733818e-05,-0.001701112087912,-0.0018095761904761,-0.0009588178021978,-0.0001359094017094,0.0002202763125763,0.00048885006105
-0.0004189103296703,-7.586202686202667e-05,-0.0001186158730158,0.0002454777289377,-0.0001489305250305,-9.726271062271064e-05,-0.0015151477411477,-0.0019646809523809,-0.0012703557020757,-0.0005135345543345,-6.637081807081822e-05,0.0002957404151404
-0.0005585492551892,-0.0002609326007326,-0.0001642349206349,0.0004091142124542,-0.0001975627106227,-0.000212765079365,-0.0013566207570207,-0.0018369476190476,-0.0013217745787545,-0.0006676056166056,-0.0002504284493284,0.0001147001221001
-0.0006101549450549,-0.0003944261294261,-0.0002433079365079,0.0005000233699633,-0.0001823651526251,-0.0003191488400488,-0.0012438227106227,-0.0015814809523809,-0.0012159121855921,-0.0006736476190476,-0.0003469832722832,-3.616678876678936e-05
-0.0006192618315018,-0.0004429692307692,-0.0002798031746031,0.0005303264224664,-0.0001702071062271,-0.0003617023443223,-0.0011523648351648,-0.0013533857142857,-0.0010888773137973,-0.0006313536019536,-0.000389226007326,-0.0001417736263736
-0.0006101549450549,-0.0004642068376068,-0.0003071746031746,0.000536387032967,-0.00015197003663,-0.0003860186324786,-0.001030421001221,-0.001143538095238,-0.000973941001221,-0.0005920805860805,-0.000416382051282,-0.0002232417582417
-0.0005980124297924,-0.0004642068376068,-0.0003254222222222,0.0005303264224664,-0.0001367724786324,-0.0003951372405372,-0.0008901855921855,-0.0009306492063492,-0.0008590046886446,-0.0005467655677655,-0.0004224167277167,-0.0002745365079365
-0.000576763028083,-0.0004369013431013,-0.0003193396825396,0.0005060839804639,-0.0001276539438339,-0.00037690002442,-0.0007804361416361,-0.000760338095238,-0.0007501176556776,-0.0004923875457875,-0.0004103473748473,-0.0002926405372405
-0.0005615848840048,-0.0004065619047619,-0.0003041333333333,0.0004818415384615,-0.0001276539438339,-0.0003556232722832,-0.0007316586080586,-0.0006690999999999,-0.0006866002197802,-0.0004531145299145,-0.0003952606837606,-0.0002896231990231
-0.0005615848840048,-0.0003944261294261,-0.0002950095238095,0.0004757809279609,-0.0001337329670329,-0.0003434651282051,-0.0007194642246642,-0.000635646031746,-0.0006593784615384,-0.0004440515262515,-0.000389226007326,-0.0002926405372405
-0.0005615848840048,-0.00039746007326,-0.0002950095238095,0.0004788112332112,-0.0001337329670329,-0.0003465046642246,-0.000713367032967,-0.0006234809523809,-0.0006593784615384,-0.0004500935286935,-0.000398278021978,-0.0003077272283272
-0.0005646205128205,-0.0004065619047619,-0.0002980507936507,0.0004848718437118,-0.0001337329670329,-0.0003525837362637,-0.0007011726495726,-0.0006143571428571,-0.0006533291819291,-0.0004561355311355,-0.00040733003663,-0.0003167792429792
-0.0005615848840048,-0.0004156637362637,-0.0003102158730158,0.0004879021489621,-0.0001246144322344,-0.0003617023443223,-0.0006920268620268,-0.000602192063492,-0.0006472799023199,-0.0004561355311355,-0.0004103473748473,-0.0003288485958485
-0.0005615848840048,-0.0004186976800976,-0.0003132571428571,0.0004879021489621,-0.0001246144322344,-0.0003647418803418,-0.0006859296703296,-0.0005869857142857,-0.0006382059829059,-0.0004500935286935,-0.00040733003663,-0.0003288485958485
-0.0005646205128205,-0.0004156637362637,-0.0003041333333333,0.0004879021489621,-0.0001306934554334,-0.0003586628083028,-0.0006798324786324,-0.0005778619047619,-0.0006321567032967,-0.0004440515262515,-0.00040733003663,-0.0003258312576312
-0.0005676561416361,-0.0004095958485958,-0.0002950095238095,0.0004879021489621,-0.0001367724786324,-0.0003525837362637,-0.0006798324786324,-0.0005748206349206,-0.0006321567032967,-0.0004500935286935,-0.0004103473748473,-0.0003288485958485
-0.0005676561416361,-0.0004035279609279,-0.0002919682539682,0.0004848718437118,-0.0001367724786324,-0.0003465046642246,-0.0006798324786324,-0.0005717793650793,-0.0006321567032967,-0.0004531145299145,-0.0004103473748473,-0.0003318659340659
-0.0005676561416361,-0.000400494017094,-0.0002919682539682,0.0004818415384615,-0.0001367724786324,-0.0003465046642246,-0.0006706866910866,-0.0005626555555555,-0.0006200581440781,-0.0004440515262515,-0.00040733003663,-0.0003288485958485
-0.0005646205128205,-0.0004126297924297,-0.0003071746031746,0.0004879021489621,-0.0001276539438339,-0.0003586628083028,-0.0006615409035409,-0.0005474492063492,-0.0006109842246642,-0.0004410305250305,-0.0004103473748473,-0.0003318659340659
-0.0005646205128205,-0.0004247655677655,-0.0003193396825396,0.0004939627594627,-0.0001215749206349,-0.0003708209523809,-0.0006584923076923,-0.0005444079365079,-0.0006079595848595,-0.0004410305250305,-0.0004103473748473,-0.0003379006105006
-0.0005646205128205,-0.0004247655677655,-0.0003223809523809,0.0004939627594627,-0.0001215749206349,-0.0003738604884004,-0.0006615409035409,-0.0005383253968253,-0.0006079595848595,-0.0004440515262515,-0.0004133647130647,-0.0003379006105006
-0.0005646205128205,-0.0004247655677655,-0.0003193396825396,0.0004939627594627,-0.0001215749206349,-0.0003708209523809,-0.0006645894993894,-0.0005413666666666,-0.0006170335042735,-0.0004531145299145,-0.0004193993894993,-0.0003439352869352
-0.0005646205128205,-0.0004156637362637,-0.0003102158730158,0.0004879021489621,-0.0001276539438339,-0.0003617023443223,-0.000667638095238,-0.0005413666666666,-0.0006200581440781,-0.0004591565323565,-0.000425434065934,-0.0003469526251526
-0.0005646205128205,-0.0004035279609279,-0.0002980507936507,0.0004818415384615,-0.0001337329670329,-0.0003495442002442,-0.000667638095238,-0.0005352841269841,-0.0006140088644688,-0.0004531145299145,-0.0004193993894993,-0.0003379006105006
-0.0005585492551892,-0.0004095958485958,-0.0003102158730158,0.0004818415384615,-0.0001246144322344,-0.0003586628083028,-0.000667638095238,-0.0005261603174603,-0.0006049349450549,-0.0004561355311355,-0.0004224167277167,-0.0003439352869352
-0.0005585492551892,-0.0004186976800976,-0.0003193396825396,0.0004879021489621,-0.0001185354090354,-0.0003677814163614,-0.000667638095238,-0.0005200777777777,-0.0006079595848595,-0.0004561355311355,-0.000425434065934,-0.0003529873015873
-0.0005585492551892,-0.0004186976800976,-0.0003193396825396,0.0004879021489621,-0.0001185354090354,-0.0003677814163614,-0.0006706866910866,-0.0005200777777777,-0.0006109842246642,-0.0004531145299145,-0.0004284514041514,-0.0003560046398046
-0.0005585492551892,-0.0004217316239316,-0.0003223809523809,0.0004879021489621,-0.0001185354090354,-0.0003708209523809,-0.0006645894993894,-0.0005139952380952,-0.0006079595848595,-0.0004561355311355,-0.0004314687423687,-0.0003560046398046
-0.0005646205128205,-0.0004186976800976,-0.0003132571428571,0.0004909324542124,-0.0001246144322344,-0.0003647418803418,-0.0006584923076923,-0.0005079126984126,-0.0006049349450549,-0.0004591565323565,-0.0004314687423687,-0.0003499699633699
-0.0005676561416361,-0.0004156637362637,-0.0003102158730158,0.0004909324542124,-0.0001276539438339,-0.0003617023443223,-0.0006554437118437,-0.0005018301587301,-0.0006019103052503,-0.0004531145299145,-0.0004284514041514,-0.0003439352869352
-0.0005615848840048,-0.0004277995115995,-0.0003223809523809,0.0004939627594627,-0.0001185354090354,-0.0003738604884004,-0.0006523951159951,-0.0004957476190476,-0.000595861025641,-0.0004500935286935,-0.0004284514041514,-0.0003499699633699
-0.0005615848840048,-0.0004429692307692,-0.0003406285714285,0.0005000233699633,-0.0001094168742368,-0.0003920977045177,-0.0006493465201465,-0.0004805412698412,-0.0005837624664224,-0.0004410305250305,-0.0004224167277167,-0.0003529873015873
-0.0005646205128205,-0.0004490371184371,-0.0003406285714285,0.0005060839804639,-0.0001124563858363,-0.0003951372405372,-0.0006402007326007,-0.0004714174603174,-0.0005777131868131,-0.0004380095238095,-0.0004193993894993,-0.0003469526251526
-0.0005585492551892,-0.0004399352869352,-0.0003406285714285,0.000496993064713,-0.0001094168742368,-0.0003890581684981,-0.0006402007326007,-0.0004653349206349,-0.0005807378266178,-0.0004470725274725,-0.000425434065934,-0.0003499699633699
-0.0005524779975579,-0.0004399352869352,-0.0003467111111111,0.0004939627594627,-0.0001033378510378,-0.0003920977045177,-0.0006462979242979,-0.0004622936507936,-0.0005867871062271,-0.0004561355311355,-0.0004375034188034,-0.0003650566544566
-0.0005555136263736,-0.0004490371184371,-0.0003527936507936,0.0005000233699633,-0.0001002983394383,-0.0004012163125763,-0.0006402007326007,-0.0004531698412698,-0.0005837624664224,-0.0004561355311355,-0.0004375034188034,-0.0003680739926739
-0.0005615848840048,-0.000455105006105,-0.0003527936507936,0.0005060839804639,-0.0001033378510378,-0.0004042558485958,-0.0006371521367521,-0.000444046031746,-0.0005777131868131,-0.0004500935286935,-0.0004375034188034,-0.0003650566544566
-0.0005555136263736,-0.0004581389499389,-0.0003619174603174,0.0005060839804639,-9.725882783882755e-05,-0.0004103349206349,-0.0006310549450549,-0.0004318809523809,-0.0005746885470085,-0.0004470725274725,-0.0004375034188034,-0.0003650566544566
-0.0005524779975579,-0.0004611728937728,-0.0003710412698412,0.0005060839804639,-9.117980463980436e-05,-0.0004164139926739,-0.0006280063492063,-0.0004197158730158,-0.0005686392673992,-0.0004440515262515,-0.000434486080586,-0.0003620393162393
-0.0005524779975579,-0.0004642068376068,-0.0003679999999999,0.0005060839804639,-9.117980463980436e-05,-0.0004164139926739,-0.0006188605616605,-0.0004075507936507,-0.0005656146275946,-0.0004470725274725,-0.000434486080586,-0.0003620393162393
-0.0005524779975579,-0.0004611728937728,-0.0003679999999999,0.0005060839804639,-9.117980463980436e-05,-0.0004133744566544,-0.0006158119658119,-0.0004014682539682,-0.0005686392673992,-0.0004500935286935,-0.0004375034188034,-0.0003650566544566
-0.0005524779975579,-0.0004642068376068,-0.0003710412698412,0.0005060839804639,-9.117980463980436e-05,-0.0004164139926739,-0.0006127633699633,-0.0003953857142857,-0.0005656146275946,-0.0004561355311355,-0.000443538095238,-0.0003741086691086
-0.0005524779975579,-0.0004642068376068,-0.0003710412698412,0.0005060839804639,-9.117980463980436e-05,-0.0004164139926739,-0.0006066661782661,-0.0003801793650793,-0.0005595653479853,-0.0004561355311355,-0.0004495727716727,-0.000377126007326
-0.0005464067399267,-0.0004642068376068,-0.0003771238095238,0.0005030536752136,-8.510078144078116e-05,-0.0004194535286935,-0.0006036175824175,-0.0003680142857142,-0.0005565407081807,-0.0004561355311355,-0.0004525901098901,-0.0003801433455433
-0.0005433711111111,-0.0004672407814407,-0.0003832063492063,0.0005030536752136,-7.902175824175796e-05,-0.0004255326007326,-0.0006005689865689,-0.0003528079365079,-0.0005504914285714,-0.0004561355311355,-0.0004556074481074,-0.000386178021978
-0.0005433711111111,-0.0004763426129426,-0.0003862476190476,0.0005091142857142,-7.902175824175796e-05,-0.0004316116727716,-0.0005944717948717,-0.0003376015873015,-0.0005444421489621,-0.0004531145299145,-0.0004525901098901,-0.000386178021978
-0.0005433711111111,-0.0004672407814407,-0.0003832063492063,0.0005030536752136,-7.902175824175796e-05,-0.0004255326007326,-0.0005944717948717,-0.0003223952380952,-0.0005414175091575,-0.0004531145299145,-0.0004495727716727,-0.0003801433455433
-0.0005372998534798,-0.0004581389499389,-0.000380165079365,0.000496993064713,-7.902175824175796e-05,-0.0004194535286935,-0.0005975203907203,-0.0003102301587301,-0.0005353682295482,-0.0004470725274725,-0.000443538095238,-0.000377126007326
-0.0005372998534798,-0.000452071062271,-0.000380165079365,0.0004939627594627,-7.902175824175796e-05,-0.0004164139926739,-0.0005914231990231,-0.0002889412698412,-0.0005262943101343,-0.0004410305250305,-0.0004405207570207,-0.0003741086691086
-0.0005312285958485,-0.000455105006105,-0.0003862476190476,0.0004909324542124,-7.294273504273476e-05,-0.0004194535286935,-0.0005822774114774,-0.0002646111111111,-0.0005172203907203,-0.0004349885225885,-0.000434486080586,-0.0003650566544566
-0.0005251573382173,-0.0004611728937728,-0.0003892888888888,0.0004909324542124,-6.686371184371155e-05,-0.0004255326007326,-0.0005761802197802,-0.0002402809523809,-0.0005081464713064,-0.0004259255189255,-0.0004314687423687,-0.0003620393162393
-0.0005251573382173,-0.0004642068376068,-0.0003953714285714,0.0004939627594627,-6.382420024419996e-05,-0.0004285721367521,-0.0005670344322344,-0.000218992063492,-0.0004990725518925,-0.0004198835164835,-0.000425434065934,-0.0003590219780219
-0.0005221217094017,-0.0004581389499389,-0.0003953714285714,0.0004879021489621,-6.382420024419996e-05,-0.0004255326007326,-0.0005639858363858,-0.0001946619047619,-0.0004899986324786,-0.0004138415140415,-0.0004193993894993,-0.0003529873015873
-0.0005130148229548,-0.0004429692307692,-0.0003862476190476,0.0004757809279609,-6.382420024419996e-05,-0.0004133744566544,-0.0005670344322344,-0.0001703317460317,-0.0004809247130647,-0.0004077995115995,-0.0004133647130647,-0.0003469526251526
