I,II,III,aVR,aVL,aVF,v1,v2,v3,v4,v5,v6
-0.0005403354822954,-0.0003883582417582,-0.0003071746031746,0.0004636597069597,-0.0001154958974358,-0.0003465046642246,-0.0005914231990231,-0.0004744587301587,-0.0005081464713064,-0.0003957155067155,-0.0004405207570207,-0.0004284207570207
-0.0005160504517704,-0.0003853242979242,-0.0003254222222222,0.0004485081807081,-9.421931623931596e-05,-0.0003556232722832,-0.0005944717948717,-0.0004653349206349,-0.0005081464713064,-0.0003957155067155,-0.0004375034188034,-0.0004284207570207
-0.0005039079365079,-0.0003853242979242,-0.000334546031746,0.0004424475702075,-8.510078144078116e-05,-0.0003586628083028,-0.0005975203907203,-0.0004592523809523,-0.0005081464713064,-0.0003957155067155,-0.0004405207570207,-0.000431438095238
-0.0005130148229548,-0.0003853242979242,-0.0003254222222222,0.0004485081807081,-9.421931623931596e-05,-0.0003556232722832,-0.0006005689865689,-0.0004562111111111,-0.0005111711111111,-0.0003987365079365,-0.0004465554334554,-0.0004374727716727
-0.000519086080586,-0.0003792564102564,-0.0003193396825396,0.0004485081807081,-0.0001002983394383,-0.0003495442002442,-0.0006005689865689,-0.0004531698412698,-0.0005141957509157,-0.0004077995115995,-0.0004495727716727,-0.0004465247863247
-0.0005069435653235,-0.0003762224664224,-0.0003284634920634,0.0004394172649572,-8.814029304029276e-05,-0.0003525837362637,-0.0006036175824175,-0.0004470873015873,-0.0005111711111111,-0.0004108205128205,-0.0004586247863247,-0.0004525594627594
-0.0005099791941391,-0.0003822903540903,-0.0003254222222222,0.0004454778754578,-9.117980463980436e-05,-0.0003525837362637,-0.0005944717948717,-0.0004318809523809,-0.0004990725518925,-0.0004017575091575,-0.0004525901098901,-0.0004435074481074
-0.0005160504517704,-0.0003944261294261,-0.0003315047619047,0.0004545687912087,-9.117980463980436e-05,-0.0003617023443223,-0.000585326007326,-0.0004197158730158,-0.0004899986324786,-0.0003957155067155,-0.0004465554334554,-0.0004374727716727
-0.0005221217094017,-0.0003913921855921,-0.0003254222222222,0.0004545687912087,-9.725882783882755e-05,-0.0003586628083028,-0.000585326007326,-0.0004136333333333,-0.0004839493528693,-0.0003926945054945,-0.000443538095238,-0.0004344554334554
-0.0005221217094017,-0.0003822903540903,-0.0003132571428571,0.0004515384859584,-0.0001033378510378,-0.0003465046642246,-0.0005822774114774,-0.0004014682539682,-0.00047790007326,-0.0003896735042735,-0.0004405207570207,-0.0004374727716727
-0.0005130148229548,-0.0003792564102564,-0.0003193396825396,0.0004454778754578,-9.725882783882755e-05,-0.0003495442002442,-0.000585326007326,-0.0003953857142857,-0.00047790007326,-0.0003957155067155,-0.0004495727716727,-0.0004435074481074
-0.0005160504517704,-0.0003792564102564,-0.0003162984126984,0.0004454778754578,-0.0001002983394383,-0.0003465046642246,-0.000585326007326,-0.0003862619047619,-0.0004748754334554,-0.0003987365079365,-0.0004525901098901,-0.0004495421245421
-0.0005160504517704,-0.0003731885225885,-0.0003162984126984,0.0004424475702075,-0.0001002983394383,-0.0003434651282051,-0.0005792288156288,-0.0003740968253968,-0.0004688261538461,-0.0003957155067155,-0.0004525901098901,-0.0004495421245421
-0.0005099791941391,-0.0003762224664224,-0.0003254222222222,0.0004424475702075,-9.117980463980436e-05,-0.0003495442002442,-0.0005761802197802,-0.0003619317460317,-0.0004627768742368,-0.0003926945054945,-0.0004525901098901,-0.0004495421245421
-0.0005099791941391,-0.0003822903540903,-0.0003284634920634,0.0004454778754578,-9.117980463980436e-05,-0.0003556232722832,-0.0005670344322344,-0.0003436841269841,-0.0004537029548229,-0.0003866525030525,-0.0004465554334554,-0.0004435074481074
-0.0005099791941391,-0.0003853242979242,-0.0003315047619047,0.0004454778754578,-8.814029304029276e-05,-0.0003586628083028,-0.0005609372405372,-0.000331519047619,-0.0004506783150183,-0.0003836315018315,-0.000443538095238,-0.0004404901098901
-0.0004978366788766,-0.0003731885225885,-0.0003315047619047,0.0004333566544566,-8.206126984126955e-05,-0.0003525837362637,-0.0005670344322344,-0.0003163126984126,-0.0004506783150183,-0.0003836315018315,-0.000443538095238,-0.0004374727716727
-0.0005008723076923,-0.0003580188034188,-0.0003162984126984,0.000427296043956,-9.117980463980436e-05,-0.000337386056166,-0.000570083028083,-0.000298065079365,-0.000444629035409,-0.0003866525030525,-0.0004375034188034,-0.0004374727716727
-0.0005099791941391,-0.0003549848595848,-0.0003041333333333,0.0004303263492063,-0.0001033378510378,-0.0003282674481074,-0.0005609372405372,-0.0002767761904761,-0.0004325304761904,-0.0003775894993894,-0.0004375034188034,-0.0004344554334554
-0.0005069435653235,-0.0003610527472527,-0.0003132571428571,0.0004333566544566,-9.725882783882755e-05,-0.000337386056166,-0.0005487428571428,-0.000252446031746,-0.0004234565567765,-0.0003685264957264,-0.000434486080586,-0.000431438095238
-0.0004796229059829,-0.0003580188034188,-0.000334546031746,0.0004182051282051,-7.294273504273476e-05,-0.0003465046642246,-0.0005456942612942,-0.0002372396825396,-0.0004204319169719,-0.0003685264957264,-0.000434486080586,-0.000431438095238
-0.0004614091330891,-0.0003489169719169,-0.0003406285714285,0.0004030536019536,-6.078468864468836e-05,-0.0003434651282051,-0.0005456942612942,-0.0002129095238095,-0.0004113579975579,-0.0003594634920634,-0.0004284514041514,-0.0004254034188034
-0.0004765872771672,-0.0003519509157509,-0.0003284634920634,0.0004121445177045,-7.294273504273476e-05,-0.0003404255921855,-0.0005365484737484,-0.0001824968253968,-0.0003962347985347,-0.0003473794871794,-0.000416382051282,-0.000413334065934
-0.000494801050061,-0.000342849084249,-0.0003041333333333,0.0004182051282051,-9.421931623931596e-05,-0.0003221883760683,-0.0005274026862026,-0.0001612079365079,-0.0003901855189255,-0.0003443584859584,-0.0004133647130647,-0.0004103167277167
-0.0004826585347985,-0.0003185775335775,-0.0002889269841269,0.0004000232967032,-9.725882783882755e-05,-0.0003039511599511,-0.0005274026862026,-0.0001460015873015,-0.0003841362393162,-0.0003443584859584,-0.0004103473748473,-0.0004103167277167
-0.0004674803907203,-0.0003094757020757,-0.0002950095238095,0.000387902075702,-8.510078144078116e-05,-0.0003009116239316,-0.0005274026862026,-0.0001277539682539,-0.0003750623199023,-0.0003413374847374,-0.0004133647130647,-0.000404282051282
-0.0004583735042735,-0.0003064417582417,-0.0003041333333333,0.0003818414652014,-7.598224664224636e-05,-0.0003039511599511,-0.0005213054945054,-0.0001034238095238,-0.0003629637606837,-0.0003322744810744,-0.0004043126984126,-0.00039523003663
-0.0004462309890109,-0.000291272039072,-0.0002980507936507,0.0003666899389499,-7.294273504273476e-05,-0.0002948325518925,-0.0005213054945054,-8.213492063492033e-05,-0.0003508652014652,-0.0003201904761904,-0.0003922433455433,-0.000386178021978
-0.0004492666178266,-0.0002821702075702,-0.0002858857142857,0.0003636596336996,-8.206126984126955e-05,-0.0002826744078144,-0.0005182568986568,-6.388730158730128e-05,-0.0003448159218559,-0.0003111274725274,-0.0003862086691086,-0.0003801433455433
-0.0004492666178266,-0.0002700344322344,-0.0002737206349206,0.000357599023199,-8.814029304029276e-05,-0.0002705162637362,-0.0005121597069597,-4.563968253968224e-05,-0.0003417912820512,-0.0003111274725274,-0.0003831913308913,-0.0003741086691086
-0.0004431953601953,-0.0002487968253968,-0.0002615555555555,0.0003454778021978,-9.117980463980436e-05,-0.0002553185836385,-0.0005152083028083,-3.043333333333303e-05,-0.000335742002442,-0.0003111274725274,-0.0003771566544566,-0.0003680739926739
-0.0004401597313797,-0.0002305931623931,-0.0002463492063492,0.0003333565811965,-9.725882783882755e-05,-0.0002370813675213,-0.0005182568986568,-1.8268253968253663e-05,-0.0003296927228327,-0.0003050854700854,-0.0003681046398046,-0.0003560046398046
-0.0004280172161172,-0.0002123894993894,-0.0002402666666666,0.000318205054945,-9.421931623931596e-05,-0.0002249232234432,-0.0005182568986568,-9.144444444444142e-06,-0.0003175941636141,-0.0002899804639804,-0.0003530179487179,-0.0003348832722832
-0.000412839072039,-0.0002032876678876,-0.0002433079365079,0.0003060838339438,-8.510078144078116e-05,-0.0002218836874236,-0.0005182568986568,-2.063492063462036e-08,-0.0003085202442002,-0.0002778964590964,-0.0003379312576312,-0.0003137619047619
-0.0004158747008547,-0.0001911518925518,-0.0002311428571428,0.0003030535286935,-9.117980463980436e-05,-0.0002097255433455,-0.0005182568986568,6.061904761905062e-06,-0.0003024709645909,-0.0002688334554334,-0.0003198272283272,-0.0002956578754578
-0.0004280172161172,-0.0001699142857142,-0.0001976888888888,0.0002969929181929,-0.0001154958974358,-0.0001823697191697,-0.000524354090354,-2.063492063462036e-08,-0.0003024709645909,-0.0002627914529914,-0.0003047405372405,-0.0002775538461538
-0.0004219459584859,-0.0001456427350427,-0.0001824825396825,0.0002818413919413,-0.0001185354090354,-0.0001641325030525,-0.0005426456654456,-1.8268253968253663e-05,-0.0003115448840048,-0.0002627914529914,-0.0003017231990231,-0.0002715191697191
-0.0004067678144078,-0.000127439072039,-0.0001794412698412,0.0002666898656898,-0.0001124563858363,-0.0001519743589743,-0.0005578886446886,-3.955714285714255e-05,-0.0003175941636141,-0.0002627914529914,-0.0002956885225885,-0.0002654844932844
-0.000412839072039,-0.0001153032967032,-0.0001642349206349,0.0002636595604395,-0.0001246144322344,-0.0001398162148962,-0.0005609372405372,-5.78047619047616e-05,-0.0003145695238095,-0.0002537284493284,-0.0002836191697191,-0.0002503978021978
-0.0004219459584859,-0.0001122693528693,-0.0001490285714285,0.0002666898656898,-0.0001367724786324,-0.0001306976068376,-0.0005639858363858,-8.821746031746001e-05,-0.0003175941636141,-0.0002507074481074,-0.0002745671550671,-0.0002353111111111
-0.0004249815873015,-0.0001153032967032,-0.0001490285714285,0.0002697201709401,-0.0001367724786324,-0.0001306976068376,-0.0005731316239316,-0.0001247126984126,-0.0003296927228327,-0.0002537284493284,-0.0002745671550671,-0.0002292764346764
-0.0004431953601953,-0.0001092354090354,-0.0001246984126984,0.0002757807814407,-0.000158049059829,-0.0001154999267399,-0.0005822774114774,-0.0001612079365079,-0.000335742002442,-0.0002476864468864,-0.0002594804639804,-0.0002141897435897
-0.0004523022466422,-0.0001031675213675,-0.000109492063492,0.0002757807814407,-0.0001702071062271,-0.0001063813186813,-0.0005944717948717,-0.0002037857142857,-0.0003448159218559,-0.0002446654456654,-0.0002504284493284,-0.000199103052503
-0.0004249815873015,-0.0001122693528693,-0.0001459873015873,0.0002666898656898,-0.0001398119902319,-0.000127658070818,-0.0006158119658119,-0.0002585285714285,-0.0003659884004884,-0.0002597704517704,-0.0002655151404151,-0.0002111724053724
-0.0004219459584859,-0.000127439072039,-0.0001642349206349,0.0002727504761904,-0.0001276539438339,-0.0001458952869352,-0.0006310549450549,-0.0003132714285714,-0.0003901855189255,-0.0002809174603174,-0.0002836191697191,-0.0002292764346764
-0.0004371241025641,-0.0001426087912087,-0.0001642349206349,0.000287902002442,-0.0001367724786324,-0.0001519743589743,-0.0006402007326007,-0.0003619317460317,-0.0004113579975579,-0.0002990434676434,-0.0003017231990231,-0.0002473804639804
-0.0004462309890109,-0.0001577785103785,-0.0001642349206349,0.0003000232234432,-0.0001398119902319,-0.0001610929670329,-0.0006523951159951,-0.0004014682539682,-0.0004355551159951,-0.0003141484737484,-0.0003107752136752,-0.0002564324786324
-0.0004614091330891,-0.0001699142857142,-0.0001642349206349,0.0003151747496947,-0.0001489305250305,-0.000167172039072,-0.0006615409035409,-0.0004410047619047,-0.0004506783150183,-0.0003262324786324,-0.0003228445665445,-0.0002715191697191
-0.0004765872771672,-0.0002002537240537,-0.0001794412698412,0.0003363868864468,-0.0001489305250305,-0.0001884487912087,-0.0006615409035409,-0.0004744587301587,-0.0004597522344322,-0.0003292534798534,-0.0003288792429792,-0.0002835885225885
-0.0004796229059829,-0.0002396949938949,-0.0002159365079365,0.000357599023199,-0.0001306934554334,-0.0002279627594627,-0.0006554437118437,-0.0004987888888888,-0.0004718507936507,-0.0003322744810744,-0.0003409485958485,-0.0002956578754578
-0.0004765872771672,-0.0002700344322344,-0.0002463492063492,0.0003727505494505,-0.0001154958974358,-0.0002583581196581,-0.0006554437118437,-0.000523119047619,-0.0004869739926739,-0.0003413374847374,-0.0003530179487179,-0.0003077272283272
-0.0004856941636141,-0.0002943059829059,-0.0002645968253968,0.000387902075702,-0.0001094168742368,-0.0002796348717948,-0.0006615409035409,-0.0005535317460317,-0.0005172203907203,-0.0003685264957264,-0.0003771566544566,-0.0003348832722832
-0.0004917654212454,-0.0003155435897435,-0.0002737206349206,0.0004030536019536,-0.0001094168742368,-0.0002948325518925,-0.0006706866910866,-0.0005869857142857,-0.0005474667887667,-0.0003987365079365,-0.0004043126984126,-0.0003650566544566
-0.0005039079365079,-0.0003276793650793,-0.0002767619047619,0.0004151748229548,-0.0001124563858363,-0.0003009116239316,-0.0006767838827838,-0.0006052333333333,-0.0005595653479853,-0.0004077995115995,-0.000416382051282,-0.0003831606837606
-0.0005403354822954,-0.0003580188034188,-0.0002767619047619,0.0004485081807081,-0.0001306934554334,-0.0003161093040293,-0.0006615409035409,-0.0006143571428571,-0.0005625899877899,-0.0004047785103785,-0.0004193993894993,-0.0003891953601953
-0.0005433711111111,-0.0003853242979242,-0.0002919682539682,0.0004636597069597,-0.0001246144322344,-0.000337386056166,-0.0006554437118437,-0.0006234809523809,-0.0005716639072039,-0.0004138415140415,-0.0004314687423687,-0.0004012647130647
-0.0005372998534798,-0.0003883582417582,-0.0003071746031746,0.0004606294017094,-0.0001154958974358,-0.0003465046642246,-0.0006584923076923,-0.0006386873015873,-0.0005807378266178,-0.0004229045177045,-0.000443538095238,-0.0004163514041514
-0.0005281929670329,-0.00039746007326,-0.0003254222222222,0.0004606294017094,-0.0001002983394383,-0.0003617023443223,-0.0006645894993894,-0.0006447698412698,-0.0005898117460317,-0.0004289465201465,-0.0004495727716727,-0.0004254034188034
-0.0005221217094017,-0.0004095958485958,-0.0003436698412698,0.0004636597069597,-8.814029304029276e-05,-0.00037690002442,-0.0006615409035409,-0.0006508523809523,-0.000595861025641,-0.0004319675213675,-0.0004556074481074,-0.0004284207570207
-0.0005403354822954,-0.0004186976800976,-0.000334546031746,0.0004788112332112,-0.0001033378510378,-0.00037690002442,-0.0006584923076923,-0.0006599761904761,-0.0006049349450549,-0.0004380095238095,-0.0004586247863247,-0.000431438095238
-0.0005524779975579,-0.0004247655677655,-0.0003284634920634,0.0004879021489621,-0.0001124563858363,-0.00037690002442,-0.0006584923076923,-0.0006690999999999,-0.0006109842246642,-0.0004440515262515,-0.0004616421245421,-0.000431438095238
-0.0005494423687423,-0.0004308334554334,-0.0003406285714285,0.0004879021489621,-0.0001033378510378,-0.0003860186324786,-0.0006645894993894,-0.0006721412698412,-0.0006140088644688,-0.0004440515262515,-0.0004646594627594,-0.0004374727716727
-0.0005524779975579,-0.000452071062271,-0.0003588761904761,0.0005000233699633,-9.725882783882755e-05,-0.0004042558485958,-0.0006584923076923,-0.0006660587301587,-0.0006140088644688,-0.0004440515262515,-0.0004676768009768,-0.0004374727716727
-0.0005555136263736,-0.0004611728937728,-0.0003619174603174,0.0005060839804639,-9.725882783882755e-05,-0.0004103349206349,-0.0006493465201465,-0.0006630174603174,-0.0006109842246642,-0.0004470725274725,-0.0004676768009768,-0.0004374727716727
-0.0005524779975579,-0.000452071062271,-0.0003588761904761,0.0005000233699633,-9.725882783882755e-05,-0.0004042558485958,-0.0006493465201465,-0.0006660587301587,-0.0006140088644688,-0.0004500935286935,-0.0004706941391941,-0.0004404901098901
-0.0005433711111111,-0.0004460031746031,-0.0003619174603174,0.0004939627594627,-9.117980463980436e-05,-0.0004042558485958,-0.0006523951159951,-0.0006690999999999,-0.0006230827838827,-0.0004561355311355,-0.0004767288156288,-0.0004495421245421
-0.0005494423687423,-0.0004490371184371,-0.0003588761904761,0.000496993064713,-9.421931623931596e-05,-0.0004042558485958,-0.0006554437118437,-0.0006660587301587,-0.0006230827838827,-0.0004591565323565,-0.0004827634920634,-0.0004555768009768
-0.0005555136263736,-0.0004611728937728,-0.0003619174603174,0.0005060839804639,-9.725882783882755e-05,-0.0004103349206349,-0.0006493465201465,-0.0006538936507936,-0.0006200581440781,-0.0004621775335775,-0.0004857808302808,-0.0004525594627594
-0.0005555136263736,-0.0004672407814407,-0.0003679999999999,0.0005091142857142,-9.421931623931596e-05,-0.0004164139926739,-0.0006493465201465,-0.0006538936507936,-0.0006200581440781,-0.0004621775335775,-0.0004887981684981,-0.0004585941391941
-0.0005494423687423,-0.0004672407814407,-0.0003771238095238,0.0005060839804639,-8.510078144078116e-05,-0.000422493064713,-0.0006523951159951,-0.0006660587301587,-0.000629132063492,-0.0004712405372405,-0.0004948328449328,-0.0004676461538461
-0.0005494423687423,-0.0004581389499389,-0.0003649587301587,0.0005030536752136,-9.117980463980436e-05,-0.0004103349206349,-0.0006523951159951,-0.0006660587301587,-0.0006261074236874,-0.0004712405372405,-0.0004948328449328,-0.0004646288156288
-0.0005464067399267,-0.000452071062271,-0.0003619174603174,0.000496993064713,-9.117980463980436e-05,-0.0004072953846153,-0.0006523951159951,-0.0006630174603174,-0.0006261074236874,-0.0004682195360195,-0.0004948328449328,-0.0004616114774114
-0.0005372998534798,-0.000455105006105,-0.0003740825396825,0.0004939627594627,-8.206126984126955e-05,-0.0004133744566544,-0.0006493465201465,-0.0006538936507936,-0.0006200581440781,-0.0004651985347985,-0.0004948328449328,-0.0004616114774114
-0.0005403354822954,-0.0004733086691086,-0.0003892888888888,0.0005060839804639,-7.598224664224636e-05,-0.0004316116727716,-0.0006402007326007,-0.0006417285714285,-0.0006109842246642,-0.0004621775335775,-0.0004948328449328,-0.0004646288156288
-0.0005524779975579,-0.0004854444444444,-0.0003892888888888,0.0005182052014652,-8.206126984126955e-05,-0.0004376907448107,-0.0006280063492063,-0.0006386873015873,-0.0006109842246642,-0.0004621775335775,-0.0004978501831501,-0.0004676461538461
-0.0005585492551892,-0.0004854444444444,-0.0003832063492063,0.0005212355067155,-8.814029304029276e-05,-0.0004346512087912,-0.0006280063492063,-0.0006386873015873,-0.0006109842246642,-0.0004651985347985,-0.0005008675213675,-0.0004676461538461
-0.0005615848840048,-0.0004824105006105,-0.0003771238095238,0.0005212355067155,-9.117980463980436e-05,-0.0004285721367521,-0.0006310549450549,-0.0006386873015873,-0.0006140088644688,-0.0004682195360195,-0.0005008675213675,-0.0004616114774114
-0.0005494423687423,-0.0004763426129426,-0.0003862476190476,0.0005121445909645,-8.206126984126955e-05,-0.0004316116727716,-0.0006341035409035,-0.0006326047619047,-0.0006109842246642,-0.0004651985347985,-0.0004978501831501,-0.0004616114774114
-0.0005524779975579,-0.0004763426129426,-0.0003862476190476,0.0005121445909645,-8.206126984126955e-05,-0.0004316116727716,-0.0006310549450549,-0.0006295634920634,-0.0006079595848595,-0.0004651985347985,-0.0004978501831501,-0.0004616114774114
-0.0005555136263736,-0.0004702747252747,-0.0003740825396825,0.0005121445909645,-9.117980463980436e-05,-0.000422493064713,-0.0006310549450549,-0.0006295634920634,-0.0006140088644688,-0.0004712405372405,-0.0005038848595848,-0.0004676461538461
-0.0005494423687423,-0.000452071062271,-0.0003588761904761,0.0005000233699633,-9.421931623931596e-05,-0.0004042558485958,-0.0006341035409035,-0.000635646031746,-0.0006170335042735,-0.0004742615384615,-0.0005069021978021,-0.0004676461538461
-0.0005372998534798,-0.0004460031746031,-0.0003649587301587,0.0004909324542124,-8.510078144078116e-05,-0.0004042558485958,-0.0006341035409035,-0.000635646031746,-0.0006170335042735,-0.0004772825396825,-0.0005099195360195,-0.0004736808302808
-0.0005433711111111,-0.0004672407814407,-0.000380165079365,0.0005030536752136,-8.206126984126955e-05,-0.000422493064713,-0.0006280063492063,-0.0006265222222222,-0.0006049349450549,-0.0004682195360195,-0.0005069021978021,-0.0004706634920634
-0.0005524779975579,-0.0004793765567765,-0.0003832063492063,0.0005151748962148,-8.510078144078116e-05,-0.0004316116727716,-0.0006188605616605,-0.0006173984126984,-0.0005928363858363,-0.0004531145299145,-0.0004948328449328,-0.0004616114774114
-0.0005524779975579,-0.0004854444444444,-0.0003862476190476,0.0005182052014652,-8.206126984126955e-05,-0.0004346512087912,-0.0006158119658119,-0.0006113158730158,-0.0005898117460317,-0.0004470725274725,-0.0004887981684981,-0.0004585941391941
-0.0005524779975579,-0.0004702747252747,-0.0003710412698412,0.0005091142857142,-9.117980463980436e-05,-0.0004194535286935,-0.0006249577533577,-0.0006113158730158,-0.0005928363858363,-0.0004440515262515,-0.0004827634920634,-0.0004525594627594
-0.0005524779975579,-0.0004611728937728,-0.0003649587301587,0.0005060839804639,-9.421931623931596e-05,-0.0004133744566544,-0.0006310549450549,-0.0006143571428571,-0.0005928363858363,-0.0004500935286935,-0.0004827634920634,-0.0004525594627594
-0.0005464067399267,-0.0004581389499389,-0.0003679999999999,0.0005000233699633,-8.814029304029276e-05,-0.0004133744566544,-0.0006310549450549,-0.0006082746031746,-0.0005867871062271,-0.0004500935286935,-0.0004857808302808,-0.0004525594627594
-0.0005403354822954,-0.0004581389499389,-0.0003710412698412,0.000496993064713,-8.510078144078116e-05,-0.0004133744566544,-0.0006341035409035,-0.0006113158730158,-0.0005867871062271,-0.0004500935286935,-0.0004857808302808,-0.0004465247863247
-0.0005372998534798,-0.0004429692307692,-0.0003649587301587,0.0004879021489621,-8.510078144078116e-05,-0.0004042558485958,-0.0006402007326007,-0.0006234809523809,-0.000595861025641,-0.0004561355311355,-0.0004887981684981,-0.0004555768009768
-0.0005403354822954,-0.0004369013431013,-0.0003527936507936,0.0004879021489621,-9.421931623931596e-05,-0.0003951372405372,-0.0006462979242979,-0.000635646031746,-0.0006079595848595,-0.0004712405372405,-0.0005038848595848,-0.0004646288156288
-0.0005494423687423,-0.0004308334554334,-0.0003375873015873,0.0004879021489621,-0.0001063773626373,-0.000382979096459,-0.0006432493284493,-0.0006295634920634,-0.0005988856654456,-0.0004591565323565,-0.0004918155067155,-0.0004555768009768
-0.0005524779975579,-0.0004399352869352,-0.0003436698412698,0.0004939627594627,-0.0001033378510378,-0.0003920977045177,-0.0006371521367521,-0.0006173984126984,-0.0005837624664224,-0.0004410305250305,-0.0004767288156288,-0.0004435074481074
-0.0005433711111111,-0.000452071062271,-0.0003679999999999,0.000496993064713,-8.814029304029276e-05,-0.0004103349206349,-0.0006402007326007,-0.0006204396825396,-0.0005867871062271,-0.0004410305250305,-0.0004767288156288,-0.0004465247863247
-0.0005494423687423,-0.0004490371184371,-0.0003588761904761,0.000496993064713,-9.421931623931596e-05,-0.0004042558485958,-0.0006432493284493,-0.0006234809523809,-0.0005898117460317,-0.0004440515262515,-0.0004767288156288,-0.0004525594627594
-0.0005555136263736,-0.0004460031746031,-0.0003467111111111,0.0005000233699633,-0.0001033378510378,-0.0003951372405372,-0.0006402007326007,-0.0006265222222222,-0.0005898117460317,-0.0004410305250305,-0.0004767288156288,-0.0004465247863247
-0.0005524779975579,-0.000452071062271,-0.0003497523809523,0.0005000233699633,-0.0001002983394383,-0.0004012163125763,-0.0006432493284493,-0.0006265222222222,-0.0005898117460317,-0.0004380095238095,-0.0004706941391941,-0.0004435074481074
-0.0005433711111111,-0.0004460031746031,-0.0003558349206349,0.0004939627594627,-9.421931623931596e-05,-0.0004012163125763,-0.0006554437118437,-0.0006295634920634,-0.0005898117460317,-0.0004349885225885,-0.0004676768009768,-0.0004404901098901
-0.0005433711111111,-0.0004490371184371,-0.0003588761904761,0.0004939627594627,-9.117980463980436e-05,-0.0004042558485958,-0.0006554437118437,-0.0006295634920634,-0.0005928363858363,-0.0004380095238095,-0.0004706941391941,-0.0004374727716727
-0.0005403354822954,-0.0004399352869352,-0.0003527936507936,0.0004879021489621,-9.421931623931596e-05,-0.0003951372405372,-0.0006523951159951,-0.000635646031746,-0.0005988856654456,-0.0004410305250305,-0.0004676768009768,-0.0004344554334554
-0.0005433711111111,-0.0004338673992673,-0.0003436698412698,0.0004879021489621,-0.0001002983394383,-0.0003890581684981,-0.0006493465201465,-0.0006417285714285,-0.0005988856654456,-0.0004380095238095,-0.0004676768009768,-0.000431438095238
-0.0005433711111111,-0.0004338673992673,-0.0003497523809523,0.0004879021489621,-9.725882783882755e-05,-0.0003920977045177,-0.0006493465201465,-0.0006386873015873,-0.000595861025641,-0.0004410305250305,-0.0004706941391941,-0.0004404901098901
-0.0005464067399267,-0.0004429692307692,-0.0003558349206349,0.0004939627594627,-9.421931623931596e-05,-0.0003981767765567,-0.0006523951159951,-0.0006386873015873,-0.0006019103052503,-0.0004440515262515,-0.0004767288156288,-0.0004495421245421
-0.0005433711111111,-0.000452071062271,-0.0003649587301587,0.000496993064713,-8.814029304029276e-05,-0.0004072953846153,-0.0006523951159951,-0.0006447698412698,-0.0006079595848595,-0.0004470725274725,-0.0004827634920634,-0.0004525594627594
-0.0005494423687423,-0.0004581389499389,-0.0003679999999999,0.0005030536752136,-9.117980463980436e-05,-0.0004133744566544,-0.0006462979242979,-0.0006417285714285,-0.0006049349450549,-0.0004440515262515,-0.0004827634920634,-0.0004435074481074
-0.0005615848840048,-0.000452071062271,-0.0003497523809523,0.0005060839804639,-0.0001063773626373,-0.0004012163125763,-0.0006493465201465,-0.0006386873015873,-0.0006019103052503,-0.0004410305250305,-0.0004706941391941,-0.000431438095238
-0.0005646205128205,-0.0004369013431013,-0.0003284634920634,0.0005000233699633,-0.0001185354090354,-0.000382979096459,-0.0006523951159951,-0.0006447698412698,-0.0006049349450549,-0.0004410305250305,-0.0004676768009768,-0.0004284207570207
-0.0005372998534798,-0.0004369013431013,-0.0003588761904761,0.0004848718437118,-8.814029304029276e-05,-0.0003981767765567,-0.0006615409035409,-0.0006569349206349,-0.0006170335042735,-0.0004561355311355,-0.0004797461538461,-0.0004435074481074
-0.0005251573382173,-0.000452071062271,-0.000380165079365,0.0004879021489621,-7.294273504273476e-05,-0.0004164139926739,-0.0006645894993894,-0.0006630174603174,-0.0006230827838827,-0.0004621775335775,-0.0004918155067155,-0.0004555768009768
-0.0005312285958485,-0.0004672407814407,-0.0003862476190476,0.000496993064713,-7.294273504273476e-05,-0.0004255326007326,-0.0006523951159951,-0.0006569349206349,-0.0006170335042735,-0.0004531145299145,-0.0004887981684981,-0.0004495421245421
-0.0005555136263736,-0.0004702747252747,-0.0003710412698412,0.0005121445909645,-9.117980463980436e-05,-0.0004194535286935,-0.0006432493284493,-0.0006538936507936,-0.0006170335042735,-0.0004500935286935,-0.0004827634920634,-0.0004435074481074
-0.0005615848840048,-0.0004642068376068,-0.0003558349206349,0.0005121445909645,-0.0001033378510378,-0.0004103349206349,-0.0006462979242979,-0.0006599761904761,-0.0006170335042735,-0.0004500935286935,-0.0004797461538461,-0.0004465247863247
-0.0005524779975579,-0.000455105006105,-0.0003619174603174,0.0005030536752136,-9.421931623931596e-05,-0.0004072953846153,-0.0006523951159951,-0.0006569349206349,-0.0006140088644688,-0.0004470725274725,-0.0004767288156288,-0.0004435074481074
-0.0005524779975579,-0.0004702747252747,-0.0003771238095238,0.0005091142857142,-8.814029304029276e-05,-0.000422493064713,-0.0006523951159951,-0.0006569349206349,-0.0006140088644688,-0.0004500935286935,-0.0004857808302808,-0.0004465247863247
-0.0005464067399267,-0.0004763426129426,-0.0003832063492063,0.0005091142857142,-8.206126984126955e-05,-0.0004285721367521,-0.0006584923076923,-0.0006660587301587,-0.0006230827838827,-0.0004621775335775,-0.0004948328449328,-0.0004555768009768
-0.0005464067399267,-0.0004611728937728,-0.0003679999999999,0.0005030536752136,-8.814029304029276e-05,-0.0004133744566544,-0.0006615409035409,-0.0006690999999999,-0.0006230827838827,-0.0004621775335775,-0.0004918155067155,-0.0004555768009768
-0.0005403354822954,-0.000452071062271,-0.0003679999999999,0.0004939627594627,-8.510078144078116e-05,-0.0004103349206349,-0.0006645894993894,-0.0006690999999999,-0.0006230827838827,-0.0004621775335775,-0.0004887981684981,-0.0004525594627594
-0.0005372998534798,-0.0004642068376068,-0.000380165079365,0.0005000233699633,-7.902175824175796e-05,-0.000422493064713,-0.000667638095238,-0.0006690999999999,-0.0006261074236874,-0.0004591565323565,-0.0004918155067155,-0.0004585941391941
-0.0005464067399267,-0.0004793765567765,-0.0003862476190476,0.0005121445909645,-7.902175824175796e-05,-0.0004316116727716,-0.0006645894993894,-0.0006690999999999,-0.000629132063492,-0.0004651985347985,-0.0004948328449328,-0.0004585941391941
-0.0005676561416361,-0.0004854444444444,-0.0003771238095238,0.0005242658119658,-9.421931623931596e-05,-0.0004316116727716,-0.0006615409035409,-0.0006660587301587,-0.0006261074236874,-0.0004621775335775,-0.0004948328449328,-0.0004525594627594
-0.0005646205128205,-0.0004793765567765,-0.0003740825396825,0.0005212355067155,-9.421931623931596e-05,-0.0004255326007326,-0.0006584923076923,-0.0006630174603174,-0.0006200581440781,-0.0004531145299145,-0.0004857808302808,-0.0004404901098901
-0.0005494423687423,-0.0004702747252747,-0.0003771238095238,0.0005091142857142,-8.510078144078116e-05,-0.000422493064713,-0.0006615409035409,-0.0006660587301587,-0.0006170335042735,-0.0004531145299145,-0.0004797461538461,-0.0004374727716727
-0.0005433711111111,-0.0004642068376068,-0.0003771238095238,0.0005030536752136,-8.206126984126955e-05,-0.0004194535286935,-0.000667638095238,-0.0006690999999999,-0.0006230827838827,-0.0004621775335775,-0.0004857808302808,-0.0004465247863247
-0.0005555136263736,-0.0004642068376068,-0.0003649587301587,0.0005091142857142,-9.421931623931596e-05,-0.0004133744566544,-0.000667638095238,-0.0006782238095238,-0.0006351813431013,-0.0004682195360195,-0.0004887981684981,-0.0004495421245421
-0.0005494423687423,-0.0004581389499389,-0.0003679999999999,0.0005030536752136,-9.117980463980436e-05,-0.0004133744566544,-0.000667638095238,-0.000681265079365,-0.0006382059829059,-0.0004712405372405,-0.0004918155067155,-0.0004555768009768
-0.0005524779975579,-0.0004672407814407,-0.0003771238095238,0.0005091142857142,-8.814029304029276e-05,-0.000422493064713,-0.000667638095238,-0.0006782238095238,-0.0006321567032967,-0.0004651985347985,-0.0004918155067155,-0.0004555768009768
-0.0005494423687423,-0.0004793765567765,-0.0003892888888888,0.0005121445909645,-7.902175824175796e-05,-0.0004346512087912,-0.0006706866910866,-0.0006721412698412,-0.000629132063492,-0.0004621775335775,-0.0004887981684981,-0.0004465247863247
-0.0005433711111111,-0.0004702747252747,-0.0003832063492063,0.0005060839804639,-7.902175824175796e-05,-0.0004255326007326,-0.0006737352869352,-0.0006721412698412,-0.000629132063492,-0.0004591565323565,-0.0004797461538461,-0.0004404901098901
-0.0005494423687423,-0.0004642068376068,-0.0003740825396825,0.0005060839804639,-8.814029304029276e-05,-0.0004194535286935,-0.0006706866910866,-0.0006751825396825,-0.0006321567032967,-0.0004621775335775,-0.0004857808302808,-0.0004465247863247
-0.0005585492551892,-0.0004763426129426,-0.0003740825396825,0.0005151748962148,-9.117980463980436e-05,-0.0004255326007326,-0.000667638095238,-0.0006782238095238,-0.0006351813431013,-0.0004712405372405,-0.0004948328449328,-0.0004555768009768
-0.0005585492551892,-0.0004763426129426,-0.0003740825396825,0.0005151748962148,-9.117980463980436e-05,-0.0004255326007326,-0.0006645894993894,-0.000681265079365,-0.0006321567032967,-0.0004712405372405,-0.0004978501831501,-0.0004585941391941
-0.0005524779975579,-0.0004702747252747,-0.0003740825396825,0.0005091142857142,-8.814029304029276e-05,-0.000422493064713,-0.0006615409035409,-0.0006721412698412,-0.0006261074236874,-0.0004621775335775,-0.0004918155067155,-0.0004525594627594
-0.0005494423687423,-0.0004733086691086,-0.0003771238095238,0.0005091142857142,-8.510078144078116e-05,-0.0004255326007326,-0.0006584923076923,-0.0006690999999999,-0.0006261074236874,-0.0004621775335775,-0.0004887981684981,-0.0004495421245421
-0.0005555136263736,-0.0004793765567765,-0.0003771238095238,0.0005151748962148,-8.814029304029276e-05,-0.0004285721367521,-0.0006615409035409,-0.0006782238095238,-0.0006382059829059,-0.0004742615384615,-0.0005008675213675,-0.0004616114774114
-0.0005676561416361,-0.0004733086691086,-0.0003619174603174,0.0005182052014652,-0.0001033378510378,-0.0004164139926739,-0.0006615409035409,-0.0006782238095238,-0.0006412306227106,-0.0004772825396825,-0.0005069021978021,-0.0004646288156288
-0.0005737273992673,-0.0004611728937728,-0.0003436698412698,0.0005151748962148,-0.0001154958974358,-0.0004012163125763,-0.0006584923076923,-0.0006721412698412,-0.000629132063492,-0.0004651985347985,-0.0004948328449328,-0.0004525594627594
-0.0005706917704517,-0.0004642068376068,-0.0003467111111111,0.0005151748962148,-0.0001124563858363,-0.0004042558485958,-0.0006554437118437,-0.0006690999999999,-0.0006230827838827,-0.0004591565323565,-0.0004857808302808,-0.0004465247863247
-0.0005524779975579,-0.0004733086691086,-0.0003740825396825,0.0005121445909645,-8.814029304029276e-05,-0.000422493064713,-0.0006584923076923,-0.0006690999999999,-0.0006261074236874,-0.0004591565323565,-0.0004857808302808,-0.0004435074481074
-0.0005403354822954,-0.0004793765567765,-0.0003953714285714,0.0005091142857142,-7.294273504273476e-05,-0.0004376907448107,-0.0006615409035409,-0.0006690999999999,-0.000629132063492,-0.0004621775335775,-0.0004887981684981,-0.0004435074481074
-0.0005464067399267,-0.0004793765567765,-0.0003892888888888,0.0005121445909645,-7.902175824175796e-05,-0.0004346512087912,-0.0006615409035409,-0.0006721412698412,-0.0006321567032967,-0.0004621775335775,-0.0004887981684981,-0.0004465247863247
-0.0005524779975579,-0.0004763426129426,-0.000380165079365,0.0005121445909645,-8.510078144078116e-05,-0.0004285721367521,-0.0006645894993894,-0.0006782238095238,-0.0006382059829059,-0.0004682195360195,-0.0004918155067155,-0.0004525594627594
-0.0005524779975579,-0.0004642068376068,-0.0003649587301587,0.0005060839804639,-9.421931623931596e-05,-0.0004133744566544,-0.000667638095238,-0.0006751825396825,-0.0006412306227106,-0.0004712405372405,-0.0004948328449328,-0.0004525594627594
-0.0005646205128205,-0.0004611728937728,-0.0003497523809523,0.0005121445909645,-0.0001063773626373,-0.0004042558485958,-0.0006767838827838,-0.000681265079365,-0.0006442552625152,-0.0004803035409035,-0.0005008675213675,-0.0004616114774114
-0.0005706917704517,-0.0004672407814407,-0.0003527936507936,0.0005182052014652,-0.0001094168742368,-0.0004103349206349,-0.0006737352869352,-0.0006843063492063,-0.0006412306227106,-0.0004803035409035,-0.0005038848595848,-0.0004646288156288
-0.0005615848840048,-0.0004763426129426,-0.0003679999999999,0.0005182052014652,-9.725882783882755e-05,-0.000422493064713,-0.0006615409035409,-0.0006751825396825,-0.0006321567032967,-0.0004712405372405,-0.0005008675213675,-0.0004555768009768
-0.0005615848840048,-0.0004915123321123,-0.0003832063492063,0.0005242658119658,-8.814029304029276e-05,-0.0004376907448107,-0.0006554437118437,-0.0006660587301587,-0.0006261074236874,-0.0004621775335775,-0.0004918155067155,-0.0004465247863247
-0.0005706917704517,-0.0005006141636141,-0.0003892888888888,0.0005333567277167,-9.117980463980436e-05,-0.0004437698168498,-0.0006554437118437,-0.0006660587301587,-0.000629132063492,-0.0004561355311355,-0.0004857808302808,-0.0004465247863247
-0.0005615848840048,-0.0004945462759462,-0.0003892888888888,0.0005272961172161,-8.510078144078116e-05,-0.0004407302808302,-0.0006645894993894,-0.0006721412698412,-0.0006321567032967,-0.0004621775335775,-0.0004918155067155,-0.0004495421245421
-0.0005615848840048,-0.0004945462759462,-0.0003862476190476,0.0005272961172161,-8.814029304029276e-05,-0.0004407302808302,-0.0006706866910866,-0.0006782238095238,-0.0006412306227106,-0.0004742615384615,-0.0005008675213675,-0.0004555768009768
-0.0005615848840048,-0.0004763426129426,-0.0003679999999999,0.0005182052014652,-9.725882783882755e-05,-0.000422493064713,-0.0006706866910866,-0.0006843063492063,-0.0006472799023199,-0.0004772825396825,-0.0005008675213675,-0.0004616114774114
-0.0005585492551892,-0.0004642068376068,-0.0003588761904761,0.0005091142857142,-0.0001002983394383,-0.0004103349206349,-0.0006706866910866,-0.0006843063492063,-0.0006442552625152,-0.0004772825396825,-0.0005038848595848,-0.0004676461538461
-0.0005646205128205,-0.0004793765567765,-0.0003710412698412,0.0005212355067155,-9.725882783882755e-05,-0.0004255326007326,-0.0006706866910866,-0.0006782238095238,-0.0006412306227106,-0.0004742615384615,-0.0005069021978021,-0.0004676461538461
-0.0005676561416361,-0.0004884783882783,-0.0003771238095238,0.0005272961172161,-9.421931623931596e-05,-0.0004316116727716,-0.0006645894993894,-0.0006721412698412,-0.0006321567032967,-0.0004682195360195,-0.0004978501831501,-0.0004585941391941
-0.0005797986568986,-0.0004854444444444,-0.0003649587301587,0.0005303264224664,-0.0001063773626373,-0.0004255326007326,-0.0006645894993894,-0.0006721412698412,-0.0006321567032967,-0.0004651985347985,-0.0004948328449328,-0.0004525594627594
-0.0005828342857142,-0.0004884783882783,-0.0003619174603174,0.0005333567277167,-0.0001094168742368,-0.0004255326007326,-0.0006615409035409,-0.0006721412698412,-0.0006351813431013,-0.0004712405372405,-0.0004978501831501,-0.0004555768009768
-0.0005858699145299,-0.0004854444444444,-0.0003558349206349,0.0005333567277167,-0.0001154958974358,-0.0004194535286935,-0.0006645894993894,-0.0006751825396825,-0.0006351813431013,-0.0004682195360195,-0.0004948328449328,-0.0004495421245421
-0.0005797986568986,-0.0004854444444444,-0.0003588761904761,0.0005303264224664,-0.0001094168742368,-0.000422493064713,-0.0006737352869352,-0.000681265079365,-0.0006351813431013,-0.0004712405372405,-0.0005008675213675,-0.0004525594627594
-0.0005646205128205,-0.0004854444444444,-0.0003771238095238,0.0005242658119658,-9.421931623931596e-05,-0.0004316116727716,-0.0006798324786324,-0.0006782238095238,-0.0006351813431013,-0.0004742615384615,-0.0005008675213675,-0.0004585941391941
-0.0005555136263736,-0.0004824105006105,-0.000380165079365,0.0005182052014652,-8.814029304029276e-05,-0.0004316116727716,-0.0006798324786324,-0.0006782238095238,-0.0006351813431013,-0.0004712405372405,-0.0005008675213675,-0.0004616114774114
-0.0005646205128205,-0.0004763426129426,-0.0003710412698412,0.0005182052014652,-9.725882783882755e-05,-0.000422493064713,-0.0006737352869352,-0.0006782238095238,-0.0006351813431013,-0.0004682195360195,-0.0004978501831501,-0.0004585941391941
-0.0005737273992673,-0.0004793765567765,-0.0003619174603174,0.0005242658119658,-0.0001063773626373,-0.0004194535286935,-0.0006706866910866,-0.000681265079365,-0.0006321567032967,-0.0004742615384615,-0.0005008675213675,-0.0004616114774114
-0.0005585492551892,-0.0004915123321123,-0.0003862476190476,0.0005242658119658,-8.510078144078116e-05,-0.0004376907448107,-0.0006767838827838,-0.0006873476190476,-0.0006412306227106,-0.0004803035409035,-0.0005099195360195,-0.0004646288156288
-0.0005585492551892,-0.0004945462759462,-0.0003862476190476,0.0005242658119658,-8.510078144078116e-05,-0.0004407302808302,-0.0006798324786324,-0.0006843063492063,-0.0006442552625152,-0.0004833245421245,-0.0005069021978021,-0.0004646288156288
-0.0005797986568986,-0.0004854444444444,-0.0003619174603174,0.0005303264224664,-0.0001094168742368,-0.000422493064713,-0.0006706866910866,-0.0006721412698412,-0.0006321567032967,-0.0004742615384615,-0.0004978501831501,-0.0004525594627594
-0.0005555136263736,-0.0004702747252747,-0.0003679999999999,0.0005121445909645,-9.421931623931596e-05,-0.0004194535286935,-0.0006737352869352,-0.0006690999999999,-0.0006230827838827,-0.0004651985347985,-0.0004918155067155,-0.0004495421245421
-0.0005555136263736,-0.0004763426129426,-0.0003771238095238,0.0005151748962148,-8.814029304029276e-05,-0.0004255326007326,-0.000682881074481,-0.0006751825396825,-0.0006321567032967,-0.0004712405372405,-0.0004978501831501,-0.0004555768009768
-0.0005676561416361,-0.0004733086691086,-0.0003649587301587,0.0005182052014652,-0.0001002983394383,-0.0004194535286935,-0.0006859296703296,-0.0006782238095238,-0.0006351813431013,-0.0004742615384615,-0.0005008675213675,-0.0004616114774114
-0.0005737273992673,-0.0004702747252747,-0.0003558349206349,0.0005212355067155,-0.0001094168742368,-0.0004133744566544,-0.0006859296703296,-0.0006843063492063,-0.0006351813431013,-0.0004742615384615,-0.0005038848595848,-0.0004646288156288
-0.0005676561416361,-0.0004854444444444,-0.000380165079365,0.0005242658119658,-9.421931623931596e-05,-0.0004316116727716,-0.0006859296703296,-0.000681265079365,-0.0006382059829059,-0.0004833245421245,-0.0005099195360195,-0.0004706634920634
-0.0005706917704517,-0.0004975802197802,-0.0003832063492063,0.0005333567277167,-9.421931623931596e-05,-0.0004407302808302,-0.000682881074481,-0.0006782238095238,-0.0006382059829059,-0.0004833245421245,-0.0005099195360195,-0.0004676461538461
-0.0005828342857142,-0.0004945462759462,-0.0003679999999999,0.000536387032967,-0.0001063773626373,-0.0004316116727716,-0.000682881074481,-0.000681265079365,-0.0006351813431013,-0.0004803035409035,-0.0005069021978021,-0.0004646288156288
-0.000576763028083,-0.0004884783882783,-0.0003679999999999,0.0005303264224664,-0.0001033378510378,-0.0004285721367521,-0.000682881074481,-0.0006843063492063,-0.0006412306227106,-0.0004803035409035,-0.0005008675213675,-0.0004616114774114
-0.000576763028083,-0.0004945462759462,-0.0003771238095238,0.0005333567277167,-0.0001002983394383,-0.0004346512087912,-0.0006859296703296,-0.000681265079365,-0.0006351813431013,-0.0004742615384615,-0.0004978501831501,-0.0004585941391941
-0.0005737273992673,-0.0005036481074481,-0.0003862476190476,0.000536387032967,-9.421931623931596e-05,-0.0004437698168498,-0.000682881074481,-0.0006751825396825,-0.000629132063492,-0.0004682195360195,-0.0004978501831501,-0.0004555768009768
-0.0005737273992673,-0.000506682051282,-0.0003923301587301,0.0005394173382173,-9.117980463980436e-05,-0.0004498488888888,-0.0006798324786324,-0.0006751825396825,-0.0006351813431013,-0.0004712405372405,-0.0004978501831501,-0.0004555768009768
-0.0005797986568986,-0.0004975802197802,-0.0003740825396825,0.000536387032967,-0.0001033378510378,-0.0004346512087912,-0.0006737352869352,-0.0006751825396825,-0.0006321567032967,-0.0004682195360195,-0.0004948328449328,-0.0004495421245421
-0.0005828342857142,-0.0004793765567765,-0.0003527936507936,0.0005303264224664,-0.0001154958974358,-0.0004164139926739,-0.0006767838827838,-0.0006782238095238,-0.0006351813431013,-0.0004712405372405,-0.0004978501831501,-0.0004525594627594
-0.0005889055433455,-0.0004733086691086,-0.0003436698412698,0.0005303264224664,-0.0001215749206349,-0.0004072953846153,-0.000682881074481,-0.0006843063492063,-0.0006412306227106,-0.0004833245421245,-0.0005069021978021,-0.0004616114774114
-0.0005919411721611,-0.0004854444444444,-0.0003497523809523,0.000536387032967,-0.0001215749206349,-0.0004164139926739,-0.000682881074481,-0.0006843063492063,-0.0006412306227106,-0.0004863455433455,-0.0005099195360195,-0.0004676461538461
-0.0005828342857142,-0.0004884783882783,-0.0003619174603174,0.0005333567277167,-0.0001094168742368,-0.0004255326007326,-0.0006798324786324,-0.0006873476190476,-0.0006442552625152,-0.0004893665445665,-0.0005159542124542,-0.0004706634920634
-0.0005646205128205,-0.0004884783882783,-0.0003771238095238,0.0005242658119658,-9.421931623931596e-05,-0.0004316116727716,-0.0006798324786324,-0.0006873476190476,-0.0006442552625152,-0.0004893665445665,-0.0005159542124542,-0.0004706634920634
-0.0005646205128205,-0.0004945462759462,-0.0003832063492063,0.0005272961172161,-9.117980463980436e-05,-0.0004376907448107,-0.0006859296703296,-0.000681265079365,-0.0006351813431013,-0.0004772825396825,-0.0005038848595848,-0.0004616114774114
-0.0005828342857142,-0.0004975802197802,-0.0003740825396825,0.0005394173382173,-0.0001033378510378,-0.0004346512087912,-0.000682881074481,-0.0006721412698412,-0.0006321567032967,-0.0004682195360195,-0.0004948328449328,-0.0004495421245421
-0.0005797986568986,-0.0005006141636141,-0.0003771238095238,0.0005394173382173,-0.0001002983394383,-0.0004376907448107,-0.000682881074481,-0.0006782238095238,-0.0006351813431013,-0.0004742615384615,-0.0004978501831501,-0.0004585941391941
-0.0005737273992673,-0.0004945462759462,-0.0003771238095238,0.0005333567277167,-9.725882783882755e-05,-0.0004346512087912,-0.0006767838827838,-0.0006782238095238,-0.0006351813431013,-0.0004742615384615,-0.0005008675213675,-0.0004646288156288
-0.0005828342857142,-0.0004854444444444,-0.0003619174603174,0.0005333567277167,-0.0001094168742368,-0.000422493064713,-0.0006706866910866,-0.0006690999999999,-0.0006261074236874,-0.0004682195360195,-0.0004948328449328,-0.0004585941391941
-0.0005858699145299,-0.0004975802197802,-0.0003679999999999,0.0005394173382173,-0.0001094168742368,-0.0004316116727716,-0.0006737352869352,-0.0006721412698412,-0.000629132063492,-0.0004682195360195,-0.0004948328449328,-0.0004555768009768
-0.000576763028083,-0.0005036481074481,-0.0003832063492063,0.0005394173382173,-9.725882783882755e-05,-0.0004437698168498,-0.0006798324786324,-0.0006690999999999,-0.000629132063492,-0.0004682195360195,-0.0004978501831501,-0.0004585941391941
-0.0005828342857142,-0.0004793765567765,-0.0003527936507936,0.0005303264224664,-0.0001154958974358,-0.0004164139926739,-0.0006645894993894,-0.0006569349206349,-0.0006200581440781,-0.0004621775335775,-0.0004918155067155,-0.0004555768009768
-0.000576763028083,-0.0004733086691086,-0.0003527936507936,0.0005242658119658,-0.0001124563858363,-0.0004133744566544,-0.0006615409035409,-0.0006538936507936,-0.0006170335042735,-0.0004621775335775,-0.0004918155067155,-0.0004555768009768
-0.0005555136263736,-0.0004733086691086,-0.0003740825396825,0.0005121445909645,-9.117980463980436e-05,-0.000422493064713,-0.000667638095238,-0.0006538936507936,-0.0006200581440781,-0.0004651985347985,-0.0004948328449328,-0.0004585941391941
-0.0005403354822954,-0.0004642068376068,-0.0003740825396825,0.0005000233699633,-8.206126984126955e-05,-0.0004194535286935,-0.0006706866910866,-0.0006447698412698,-0.0006109842246642,-0.0004531145299145,-0.0004857808302808,-0.0004495421245421
-0.0005342642246642,-0.0004490371184371,-0.0003679999999999,0.0004909324542124,-8.206126984126955e-05,-0.0004072953846153,-0.0006584923076923,-0.0006234809523809,-0.0005928363858363,-0.0004380095238095,-0.0004737114774114,-0.0004374727716727
-0.0005160504517704,-0.0004308334554334,-0.0003710412698412,0.0004727506227106,-7.294273504273476e-05,-0.0004012163125763,-0.0006584923076923,-0.0006173984126984,-0.0005898117460317,-0.0004380095238095,-0.0004737114774114,-0.0004404901098901
-0.0005099791941391,-0.0004247655677655,-0.0003710412698412,0.00046669001221,-6.990322344322315e-05,-0.0003981767765567,-0.0006706866910866,-0.0006326047619047,-0.0006079595848595,-0.0004500935286935,-0.0004827634920634,-0.0004465247863247
-0.0005281929670329,-0.0004429692307692,-0.0003679999999999,0.0004848718437118,-7.902175824175796e-05,-0.0004042558485958,-0.000682881074481,-0.0006508523809523,-0.000629132063492,-0.0004682195360195,-0.0004918155067155,-0.0004555768009768
-0.0005555136263736,-0.0004793765567765,-0.0003771238095238,0.0005151748962148,-8.814029304029276e-05,-0.0004285721367521,-0.000682881074481,-0.0006569349206349,-0.0006412306227106,-0.0004772825396825,-0.0005038848595848,-0.0004646288156288
-0.0005706917704517,-0.000506682051282,-0.0003923301587301,0.000536387032967,-8.814029304029276e-05,-0.0004498488888888,-0.0006737352869352,-0.0006478111111111,-0.0006351813431013,-0.0004742615384615,-0.0005038848595848,-0.0004676461538461
-0.000576763028083,-0.000506682051282,-0.0003862476190476,0.0005394173382173,-9.421931623931596e-05,-0.0004468093528693,-0.000682881074481,-0.0006538936507936,-0.0006321567032967,-0.0004682195360195,-0.0004978501831501,-0.0004585941391941
-0.0005737273992673,-0.0005036481074481,-0.0003862476190476,0.000536387032967,-9.421931623931596e-05,-0.0004437698168498,-0.000698124053724,-0.0006782238095238,-0.0006382059829059,-0.0004712405372405,-0.0004978501831501,-0.0004495421245421
-0.000576763028083,-0.000506682051282,-0.0003892888888888,0.0005394173382173,-9.421931623931596e-05,-0.0004468093528693,-0.0007011726495726,-0.0006873476190476,-0.0006503045421245,-0.0004772825396825,-0.0005008675213675,-0.0004555768009768
-0.0005737273992673,-0.0004975802197802,-0.0003892888888888,0.0005333567277167,-9.117980463980436e-05,-0.0004437698168498,-0.0007011726495726,-0.000681265079365,-0.0006533291819291,-0.0004772825396825,-0.0004978501831501,-0.0004555768009768
-0.0005555136263736,-0.0004884783882783,-0.0003984126984126,0.0005212355067155,-7.902175824175796e-05,-0.0004437698168498,-0.0007042212454212,-0.0006782238095238,-0.0006533291819291,-0.0004803035409035,-0.0004978501831501,-0.0004555768009768
-0.0005433711111111,-0.0004945462759462,-0.0004105777777777,0.0005182052014652,-6.686371184371155e-05,-0.0004528884249084,-0.0007042212454212,-0.0006873476190476,-0.0006624031013431,-0.0004893665445665,-0.0005099195360195,-0.0004646288156288
-0.0005464067399267,-0.0005036481074481,-0.000413619047619,0.0005242658119658,-6.686371184371155e-05,-0.0004589674969474,-0.0007042212454212,-0.0006934301587301,-0.000671477020757,-0.0004984295482295,-0.0005189715506715,-0.0004736808302808
-0.0005646205128205,-0.0005218517704517,-0.0004105777777777,0.0005424476434676,-7.598224664224636e-05,-0.0004650465689865,-0.0007011726495726,-0.0006995126984126,-0.000671477020757,-0.0004954085470085,-0.0005189715506715,-0.0004766981684981
-0.0005797986568986,-0.0005309536019536,-0.0004044952380952,0.0005545688644688,-8.814029304029276e-05,-0.0004680861050061,-0.0006920268620268,-0.0007025539682539,-0.000671477020757,-0.0004954085470085,-0.0005219888888888,-0.0004766981684981
-0.0005919411721611,-0.0005309536019536,-0.0003953714285714,0.0005606294749694,-9.725882783882755e-05,-0.000462007032967,-0.0006859296703296,-0.0007025539682539,-0.0006684523809523,-0.0004984295482295,-0.0005250062271062,-0.0004827328449328
-0.0006040836874236,-0.0005309536019536,-0.0003832063492063,0.00056669008547,-0.0001094168742368,-0.0004559279609279,-0.000682881074481,-0.0007055952380952,-0.0006745016605616,-0.0005044715506715,-0.0005280235653235,-0.0004857501831501
-0.0006162262026862,-0.0005279196581196,-0.0003710412698412,0.0005697203907203,-0.0001215749206349,-0.0004498488888888,-0.0006798324786324,-0.0007086365079365,-0.0006745016605616,-0.0005044715506715,-0.0005280235653235,-0.0004766981684981
-0.0006222974603174,-0.0005339875457875,-0.0003649587301587,0.000575781001221,-0.0001276539438339,-0.0004498488888888,-0.0006798324786324,-0.0007055952380952,-0.000671477020757,-0.0005014505494505,-0.0005250062271062,-0.0004736808302808
-0.0005919411721611,-0.0005248857142857,-0.0003862476190476,0.0005575991697191,-0.0001033378510378,-0.0004559279609279,-0.0006859296703296,-0.0007086365079365,-0.0006775263003663,-0.0005014505494505,-0.0005189715506715,-0.0004706634920634
-0.0005706917704517,-0.0005157838827838,-0.0004044952380952,0.0005424476434676,-8.206126984126955e-05,-0.0004589674969474,-0.0006950754578754,-0.0007086365079365,-0.0006745016605616,-0.0004984295482295,-0.0005189715506715,-0.0004706634920634
-0.0005858699145299,-0.0005218517704517,-0.0003953714285714,0.0005515385592185,-9.421931623931596e-05,-0.0004589674969474,-0.0006889782661782,-0.0007055952380952,-0.0006684523809523,-0.0004984295482295,-0.0005159542124542,-0.0004706634920634
-0.000601048058608,-0.0005248857142857,-0.000380165079365,0.0005606294749694,-0.0001094168742368,-0.0004528884249084,-0.000682881074481,-0.0007055952380952,-0.0006684523809523,-0.0004984295482295,-0.0005189715506715,-0.0004736808302808
-0.0005919411721611,-0.0005188178266178,-0.0003832063492063,0.0005545688644688,-0.0001033378510378,-0.0004498488888888,-0.0006920268620268,-0.0007086365079365,-0.000671477020757,-0.0005014505494505,-0.0005219888888888,-0.0004766981684981
-0.0005737273992673,-0.000506682051282,-0.0003892888888888,0.0005394173382173,-9.117980463980436e-05,-0.0004468093528693,-0.0007042212454212,-0.0007116777777777,-0.000671477020757,-0.0004984295482295,-0.0005189715506715,-0.0004797155067155
-0.0005828342857142,-0.0004975802197802,-0.0003740825396825,0.0005394173382173,-0.0001033378510378,-0.0004346512087912,-0.0007072698412698,-0.000714719047619,-0.0006684523809523,-0.0004984295482295,-0.0005159542124542,-0.0004736808302808
-0.0005980124297924,-0.0004975802197802,-0.0003558349206349,0.0005454779487179,-0.0001215749206349,-0.0004255326007326,-0.000698124053724,-0.000714719047619,-0.0006624031013431,-0.0004954085470085,-0.0005129368742368,-0.0004676461538461
-0.000601048058608,-0.0004975802197802,-0.0003527936507936,0.0005485082539682,-0.0001246144322344,-0.0004255326007326,-0.0006889782661782,-0.0007055952380952,-0.0006503045421245,-0.0004863455433455,-0.0005099195360195,-0.0004616114774114
-0.0005919411721611,-0.0005097159951159,-0.0003740825396825,0.0005485082539682,-0.0001094168742368,-0.0004407302808302,-0.0006920268620268,-0.0006782238095238,-0.0006230827838827,-0.0004742615384615,-0.0005099195360195,-0.0004706634920634
-0.0005797986568986,-0.0004793765567765,-0.0003527936507936,0.0005272961172161,-0.0001124563858363,-0.0004164139926739,-0.0006889782661782,-0.0006295634920634,-0.0005625899877899,-0.0004410305250305,-0.0005008675213675,-0.0004736808302808
-0.0005676561416361,-0.0003822903540903,-0.000267638095238,0.0004727506227106,-0.0001489305250305,-0.0003252279120879,-0.0007011726495726,-0.0005839444444444,-0.0004899986324786,-0.0003926945054945,-0.0004676768009768,-0.0004616114774114
-0.0005130148229548,-0.0002245252747252,-0.0001672761904761,0.0003666899389499,-0.0001732466178266,-0.0001945278632478,-0.0007377557997557,-0.0004592523809523,-0.0003478405616605,-0.0002597704517704,-0.0003711219780219,-0.000404282051282
-0.0004006965567765,2.1224175824176015e-05,-3.9542857142857046e-05,0.0001879019291819,-0.0001793256410256,-9.116166056166092e-06,-0.0008078735042735,-0.000331519047619,-0.0001270418559218,-2.985347985348504e-06,-0.0001689603174603,-0.0002685018315018
-0.0002671288888888,0.0003943992673992,0.0001976761904761,-6.361340659340657e-05,-0.0002309973382173,0.0002948374358974,-0.000984692063492,-0.0004592523809523,7.25843711843711e-05,0.0003383877899877,0.0001569122100122,4.126984126924072e-08
-0.0001365968498168,0.0008009477411477,0.0004713904761904,-0.0003302802686202,-0.0003039456166056,0.0006352654700854,-0.00127126007326,-0.0008029158730158,0.000184496043956,0.0006948659340659,0.0005401141636141,0.0003470351648351
-2.7314212454212727e-05,0.0011255797313797,0.0006842793650793,-0.0005484622466422,-0.0003556173137973,0.0009057841758241,-0.0016157514041514,-0.0012226111111111,0.000142151086691,0.00097884004884,0.000887108058608,0.0006789423687423
2.732710622710595e-05,0.0012894126984126,0.000793765079365,-0.0006575532356532,-0.0003829729181929,0.0010425632967032,-0.0018809792429792,-0.0015358619047619,6.042295482295402e-06,0.00106947008547,0.001065131013431,0.0009052427350427
-1.820732600732628e-05,0.0009738825396825,0.0005261333333333,-0.0004757349206349,-0.0002705109890109,0.0007507678388278,-0.0018809792429792,-0.0016575126984126,-0.0003115448840048,0.0007039289377289,0.0008146919413919,0.0008086879120879
-0.0002276657142857,0.0003155167277167,8.514920634920643e-05,-4.2401269841269815e-05,-0.0001550095482295,0.0002006118192918,-0.0016492859584859,-0.0017396269841269,-0.0008075858119658,3.326666666666614e-05,0.000289675091575,0.000479798046398
-0.0004523022466422,-3.035286935286916e-05,-3.346031746031737e-05,0.0002394171184371,-0.0002097207570207,-3.0392918192918223e-05,-0.0014541758241758,-0.0018734428571428,-0.0012007889865689,-0.0004470725274725,-6.335347985348e-05,0.000256515018315
-0.000576763028083,-0.0002275592185592,-0.0001064507936507,0.0004000232967032,-0.0002340368498168,-0.000167172039072,-0.0013078432234432,-0.0018004523809523,-0.0013127006593406,-0.0006585426129426,-0.0002745671550671,7.245738705738645e-05
-0.0006314043467643,-0.000400494017094,-0.0002281015873015,0.0005151748962148,-0.0002006022222222,-0.0003130697680097,-0.0011828507936507,-0.0015662746031746,-0.0012219614652014,-0.0006857316239316,-0.000398278021978,-0.0001055655677655
-0.0006435468620268,-0.0004854444444444,-0.000301092063492,0.0005636597802197,-0.0001702071062271,-0.0003920977045177,-0.0010913929181929,-0.0013533857142857,-0.0011040005128205,-0.0006615636141636,-0.0004646594627594,-0.0002413457875457
-0.0006283687179487,-0.0005127499389499,-0.0003406285714285,0.0005697203907203,-0.0001428515018315,-0.0004255326007326,-0.0009877406593406,-0.0011587444444444,-0.0009860395604395,-0.0006283326007326,-0.0005008675213675,-0.0003318659340659
-0.0006131905738705,-0.0005127499389499,-0.0003527936507936,0.0005606294749694,-0.0001306934554334,-0.0004316116727716,-0.0008536024420024,-0.000951938095238,-0.0008590046886446,-0.0005769755799755,-0.0005069021978021,-0.000386178021978
-0.0005949768009768,-0.0004884783882783,-0.0003527936507936,0.0005394173382173,-0.0001215749206349,-0.0004194535286935,-0.0007438529914529,-0.0007785857142857,-0.0007410437362637,-0.0005135345543345,-0.0004887981684981,-0.0004012647130647
-0.0005676561416361,-0.000452071062271,-0.0003406285714285,0.0005091142857142,-0.0001124563858363,-0.0003951372405372,-0.0006859296703296,-0.0006782238095238,-0.0006624031013431,-0.0004682195360195,-0.0004706941391941,-0.0003982473748473
-0.0005706917704517,-0.0004429692307692,-0.0003284634920634,0.0005060839804639,-0.0001215749206349,-0.0003860186324786,-0.000667638095238,-0.0006447698412698,-0.000629132063492,-0.0004591565323565,-0.0004706941391941,-0.0004072993894993
-0.0005706917704517,-0.0004399352869352,-0.0003254222222222,0.0005030536752136,-0.0001215749206349,-0.000382979096459,-0.0006584923076923,-0.0006326047619047,-0.0006230827838827,-0.0004591565323565,-0.0004767288156288,-0.0004193687423687
-0.0005828342857142,-0.0004490371184371,-0.0003254222222222,0.0005151748962148,-0.0001276539438339,-0.0003860186324786,-0.0006523951159951,-0.0006173984126984,-0.0006170335042735,-0.0004651985347985,-0.0004857808302808,-0.000431438095238
-0.0005889055433455,-0.0004611728937728,-0.0003315047619047,0.0005242658119658,-0.0001276539438339,-0.0003951372405372,-0.0006462979242979,-0.0006113158730158,-0.0006109842246642,-0.0004682195360195,-0.0004948328449328,-0.0004435074481074
-0.0005858699145299,-0.0004642068376068,-0.0003375873015873,0.0005242658119658,-0.0001246144322344,-0.0004012163125763,-0.0006402007326007,-0.000602192063492,-0.0006079595848595,-0.0004712405372405,-0.0005038848595848,-0.0004555768009768
-0.0005828342857142,-0.0004642068376068,-0.0003406285714285,0.0005212355067155,-0.0001215749206349,-0.0004012163125763,-0.0006280063492063,-0.0005869857142857,-0.0005928363858363,-0.0004651985347985,-0.0005008675213675,-0.0004555768009768
-0.0005706917704517,-0.0004581389499389,-0.0003467111111111,0.0005121445909645,-0.0001124563858363,-0.0004012163125763,-0.0006219091575091,-0.0005778619047619,-0.0005867871062271,-0.0004621775335775,-0.0004978501831501,-0.0004495421245421
-0.0005706917704517,-0.000455105006105,-0.0003436698412698,0.0005121445909645,-0.0001124563858363,-0.0003981767765567,-0.0006219091575091,-0.0005717793650793,-0.0005837624664224,-0.0004651985347985,-0.0004978501831501,-0.0004495421245421
-0.0005676561416361,-0.000452071062271,-0.0003436698412698,0.0005091142857142,-0.0001124563858363,-0.0003981767765567,-0.0006280063492063,-0.000568738095238,-0.0005837624664224,-0.0004712405372405,-0.0005038848595848,-0.0004525594627594
-0.0005646205128205,-0.0004581389499389,-0.0003497523809523,0.0005091142857142,-0.0001063773626373,-0.0004042558485958,-0.0006249577533577,-0.0005626555555555,-0.0005777131868131,-0.0004651985347985,-0.0005038848595848,-0.0004555768009768
-0.0005706917704517,-0.0004672407814407,-0.0003558349206349,0.0005182052014652,-0.0001063773626373,-0.0004103349206349,-0.0006188605616605,-0.000556573015873,-0.0005716639072039,-0.0004621775335775,-0.0004978501831501,-0.0004585941391941
-0.0005737273992673,-0.0004611728937728,-0.0003436698412698,0.0005151748962148,-0.0001154958974358,-0.0004012163125763,-0.0006188605616605,-0.000556573015873,-0.0005746885470085,-0.0004621775335775,-0.0005008675213675,-0.0004585941391941
-0.000576763028083,-0.0004490371184371,-0.0003254222222222,0.0005121445909645,-0.0001246144322344,-0.0003860186324786,-0.0006219091575091,-0.0005474492063492,-0.0005716639072039,-0.0004591565323565,-0.0004978501831501,-0.0004585941391941
-0.000576763028083,-0.000452071062271,-0.0003284634920634,0.0005121445909645,-0.0001246144322344,-0.0003890581684981,-0.0006219091575091,-0.0005413666666666,-0.0005656146275946,-0.0004531145299145,-0.0004918155067155,-0.0004525594627594
-0.0005706917704517,-0.0004581389499389,-0.0003406285714285,0.0005121445909645,-0.0001154958974358,-0.0003981767765567,-0.0006219091575091,-0.0005413666666666,-0.0005656146275946,-0.0004531145299145,-0.0004978501831501,-0.0004525594627594
-0.0005676561416361,-0.0004460031746031,-0.000334546031746,0.0005060839804639,-0.0001154958974358,-0.0003890581684981,-0.0006188605616605,-0.0005383253968253,-0.0005656146275946,-0.0004500935286935,-0.0004918155067155,-0.0004525594627594
-0.0005676561416361,-0.0004460031746031,-0.0003375873015873,0.0005060839804639,-0.0001154958974358,-0.0003920977045177,-0.0006158119658119,-0.0005352841269841,-0.0005625899877899,-0.0004500935286935,-0.0004918155067155,-0.0004495421245421
-0.0005585492551892,-0.0004429692307692,-0.0003375873015873,0.0005000233699633,-0.0001094168742368,-0.0003890581684981,-0.0006188605616605,-0.0005292015873015,-0.0005656146275946,-0.0004561355311355,-0.0004948328449328,-0.0004495421245421
-0.0005737273992673,-0.0004460031746031,-0.0003284634920634,0.0005091142857142,-0.0001215749206349,-0.0003860186324786,-0.0006158119658119,-0.000523119047619,-0.0005595653479853,-0.0004531145299145,-0.0004918155067155,-0.0004495421245421
-0.0005706917704517,-0.0004611728937728,-0.0003436698412698,0.0005151748962148,-0.0001124563858363,-0.0004012163125763,-0.0006097147741147,-0.0005109539682539,-0.0005504914285714,-0.0004500935286935,-0.0004918155067155,-0.0004495421245421
-0.0005676561416361,-0.0004642068376068,-0.0003467111111111,0.0005151748962148,-0.0001094168742368,-0.0004042558485958,-0.0006005689865689,-0.0005048714285714,-0.0005414175091575,-0.0004470725274725,-0.0004918155067155,-0.0004495421245421
-0.0005737273992673,-0.0004490371184371,-0.0003315047619047,0.0005091142857142,-0.0001215749206349,-0.0003890581684981,-0.0006036175824175,-0.0005018301587301,-0.0005414175091575,-0.0004440515262515,-0.0004887981684981,-0.0004495421245421
-0.0005706917704517,-0.000452071062271,-0.0003375873015873,0.0005091142857142,-0.0001154958974358,-0.0003951372405372,-0.0006066661782661,-0.0004987888888888,-0.0005444421489621,-0.0004470725274725,-0.0004978501831501,-0.0004555768009768
-0.0005585492551892,-0.000455105006105,-0.0003527936507936,0.0005060839804639,-0.0001033378510378,-0.0004042558485958,-0.0006127633699633,-0.0004957476190476,-0.0005474667887667,-0.0004561355311355,-0.0005038848595848,-0.0004616114774114
-0.0005646205128205,-0.000452071062271,-0.0003406285714285,0.0005060839804639,-0.0001124563858363,-0.0003951372405372,-0.0006097147741147,-0.0004927063492063,-0.0005474667887667,-0.0004561355311355,-0.0005069021978021,-0.0004616114774114
-0.0005646205128205,-0.0004490371184371,-0.0003406285714285,0.0005060839804639,-0.0001124563858363,-0.0003951372405372,-0.0006036175824175,-0.0004835825396825,-0.0005383928693528,-0.0004531145299145,-0.0005038848595848,-0.0004646288156288
-0.0005585492551892,-0.000452071062271,-0.0003497523809523,0.0005030536752136,-0.0001033378510378,-0.0004012163125763,-0.0005944717948717,-0.0004683761904761,-0.0005262943101343,-0.0004440515262515,-0.0005008675213675,-0.0004616114774114
-0.0005737273992673,-0.000455105006105,-0.0003375873015873,0.0005121445909645,-0.0001185354090354,-0.0003951372405372,-0.0005883746031746,-0.0004531698412698,-0.0005172203907203,-0.0004349885225885,-0.0004948328449328,-0.0004525594627594
-0.0005828342857142,-0.0004581389499389,-0.0003284634920634,0.0005182052014652,-0.0001276539438339,-0.0003920977045177,-0.0005944717948717,-0.0004501285714285,-0.0005141957509157,-0.0004349885225885,-0.0004918155067155,-0.0004495421245421
-0.0005555136263736,-0.0004460031746031,-0.0003467111111111,0.0005000233699633,-0.0001033378510378,-0.0003951372405372,-0.0005975203907203,-0.0004501285714285,-0.0005172203907203,-0.0004410305250305,-0.0004948328449328,-0.0004555768009768
-0.0005524779975579,-0.0004490371184371,-0.0003527936507936,0.0005000233699633,-0.0001002983394383,-0.0004012163125763,-0.0005883746031746,-0.0004379634920634,-0.0005141957509157,-0.0004410305250305,-0.0005008675213675,-0.0004585941391941
-0.0005524779975579,-0.000455105006105,-0.0003588761904761,0.0005030536752136,-9.725882783882755e-05,-0.0004072953846153,-0.000585326007326,-0.0004257984126984,-0.0005051218315018,-0.0004380095238095,-0.0004948328449328,-0.0004555768009768
-0.0005464067399267,-0.0004581389499389,-0.0003679999999999,0.0005000233699633,-8.814029304029276e-05,-0.0004133744566544,-0.000585326007326,-0.0004136333333333,-0.0005020971916971,-0.0004349885225885,-0.0004918155067155,-0.0004525594627594
-0.0005524779975579,-0.0004581389499389,-0.0003588761904761,0.0005030536752136,-9.725882783882755e-05,-0.0004072953846153,-0.0005822774114774,-0.0004014682539682,-0.0004930232722832,-0.0004259255189255,-0.0004857808302808,-0.0004465247863247
-0.0005464067399267,-0.0004460031746031,-0.0003588761904761,0.0004939627594627,-9.421931623931596e-05,-0.0004012163125763,-0.0005822774114774,-0.0003923444444444,-0.0004930232722832,-0.0004319675213675,-0.0004887981684981,-0.0004495421245421
-0.0005464067399267,-0.0004399352869352,-0.0003467111111111,0.0004909324542124,-0.0001002983394383,-0.0003920977045177,-0.0005792288156288,-0.0003832206349206,-0.0004899986324786,-0.0004289465201465,-0.0004887981684981,-0.0004555768009768
-0.0005464067399267,-0.0004247655677655,-0.000334546031746,0.0004848718437118,-0.0001063773626373,-0.0003799395604395,-0.0005761802197802,-0.0003710555555555,-0.0004809247130647,-0.0004259255189255,-0.0004827634920634,-0.0004495421245421
-0.0005464067399267,-0.0004186976800976,-0.0003284634920634,0.0004818415384615,-0.0001094168742368,-0.0003738604884004,-0.0005761802197802,-0.0003619317460317,-0.0004748754334554,-0.0004259255189255,-0.0004827634920634,-0.0004465247863247
-0.0005464067399267,-0.0004156637362637,-0.0003284634920634,0.0004788112332112,-0.0001094168742368,-0.0003708209523809,-0.0005731316239316,-0.0003436841269841,-0.0004658015140415,-0.0004198835164835,-0.0004827634920634,-0.0004495421245421
-0.0005555136263736,-0.0004308334554334,-0.000334546031746,0.0004909324542124,-0.0001094168742368,-0.000382979096459,-0.00055484004884,-0.0003132714285714,-0.0004476536752136,-0.0004077995115995,-0.0004767288156288,-0.0004495421245421
-0.0005555136263736,-0.0004308334554334,-0.000334546031746,0.0004909324542124,-0.0001094168742368,-0.000382979096459,-0.0005456942612942,-0.0002950238095238,-0.0004385797557997,-0.0004017575091575,-0.0004737114774114,-0.0004435074481074
-0.0005433711111111,-0.0004217316239316,-0.0003406285714285,0.0004818415384615,-0.0001002983394383,-0.0003799395604395,-0.0005487428571428,-0.0002858999999999,-0.0004385797557997,-0.0004017575091575,-0.0004737114774114,-0.0004435074481074
-0.000519086080586,-0.0004126297924297,-0.0003497523809523,0.0004636597069597,-8.510078144078116e-05,-0.0003799395604395,-0.0005456942612942,-0.0002676523809523,-0.0004325304761904,-0.0003987365079365,-0.0004676768009768,-0.0004374727716727
-0.0005221217094017,-0.0004035279609279,-0.000334546031746,0.0004606294017094,-9.421931623931596e-05,-0.0003677814163614,-0.000539597069597,-0.0002402809523809,-0.0004204319169719,-0.0003926945054945,-0.0004586247863247,-0.0004254034188034
-0.0005281929670329,-0.0003913921855921,-0.0003193396825396,0.000457599096459,-0.0001033378510378,-0.0003556232722832,-0.0005304512820512,-0.0002159507936507,-0.0004053087179487,-0.0003836315018315,-0.0004556074481074,-0.000422386080586
-0.0005130148229548,-0.0003853242979242,-0.0003284634920634,0.0004485081807081,-9.117980463980436e-05,-0.0003556232722832,-0.0005274026862026,-0.0001946619047619,-0.0003962347985347,-0.0003836315018315,-0.0004556074481074,-0.000422386080586
-0.0005039079365079,-0.0003792564102564,-0.0003315047619047,0.0004394172649572,-8.510078144078116e-05,-0.0003556232722832,-0.0005304512820512,-0.0001764142857142,-0.0003932101587301,-0.0003866525030525,-0.0004556074481074,-0.0004254034188034
-0.0005069435653235,-0.0003610527472527,-0.0003132571428571,0.0004333566544566,-9.725882783882755e-05,-0.000337386056166,-0.0005365484737484,-0.0001612079365079,-0.0003901855189255,-0.0003806105006105,-0.0004465554334554,-0.0004163514041514
-0.0005069435653235,-0.0003398151404151,-0.0002889269841269,0.0004212354334554,-0.0001094168742368,-0.0003130697680097,-0.0005365484737484,-0.0001429603174603,-0.0003811115995115,-0.0003745684981684,-0.0004375034188034,-0.0004012647130647
-0.0005008723076923,-0.0003246454212454,-0.0002798031746031,0.0004121445177045,-0.0001094168742368,-0.0003009116239316,-0.0005274026862026,-0.0001216714285714,-0.0003659884004884,-0.0003624844932844,-0.000425434065934,-0.0003922126984126
-0.0004917654212454,-0.0003185775335775,-0.0002798031746031,0.0004030536019536,-0.0001063773626373,-0.000297872087912,-0.0005121597069597,-9.734126984126952e-05,-0.0003508652014652,-0.0003473794871794,-0.0004133647130647,-0.000377126007326
-0.0005008723076923,-0.0003185775335775,-0.0002706793650793,0.0004091142124542,-0.0001154958974358,-0.0002948325518925,-0.0005091111111111,-8.821746031746001e-05,-0.0003417912820512,-0.0003413374847374,-0.0004012953601953,-0.0003650566544566
-0.0004978366788766,-0.0003003738705738,-0.000255473015873,0.0003969929914529,-0.0001215749206349,-0.0002765953357753,-0.0005213054945054,-8.213492063492033e-05,-0.0003448159218559,-0.0003383164835164,-0.0003952606837606,-0.0003560046398046
-0.0004887297924297,-0.0002670004884004,-0.0002311428571428,0.0003757808547008,-0.0001276539438339,-0.0002492395115995,-0.0005274026862026,-7.605238095238064e-05,-0.0003387666422466,-0.0003292534798534,-0.0003771566544566,-0.0003318659340659
-0.0004887297924297,-0.0002518307692307,-0.0002189777777777,0.0003697202442002,-0.0001337329670329,-0.0002340418315018,-0.0005274026862026,-6.996984126984096e-05,-0.0003296927228327,-0.0003232114774114,-0.0003681046398046,-0.0003197965811965
-0.0004765872771672,-0.0002487968253968,-0.0002281015873015,0.0003606293284493,-0.0001246144322344,-0.0002370813675213,-0.0005182568986568,-6.084603174603144e-05,-0.0003236434432234,-0.0003141484737484,-0.0003590526251526,-0.0003077272283272
-0.000470516019536,-0.0002336271062271,-0.000222019047619,0.0003515384126984,-0.0001246144322344,-0.0002279627594627,-0.000524354090354,-6.084603174603144e-05,-0.0003236434432234,-0.0003020644688644,-0.0003439659340659,-0.0002896231990231
-0.0004553378754578,-0.0002184573870573,-0.000222019047619,0.0003363868864468,-0.0001154958974358,-0.0002188441514041,-0.0005426456654456,-7.605238095238064e-05,-0.0003327173626373,-0.0003020644688644,-0.0003409485958485,-0.0002866058608058
-0.0004553378754578,-0.0002063216117216,-0.0002068126984126,0.0003303262759462,-0.0001246144322344,-0.000206686007326,-0.0005487428571428,-9.125873015872984e-05,-0.000335742002442,-0.0003050854700854,-0.0003379312576312,-0.0002775538461538
-0.0004553378754578,-0.0001911518925518,-0.0001916063492063,0.0003212353601953,-0.0001306934554334,-0.0001914883272283,-0.00055484004884,-0.0001155888888888,-0.0003478405616605,-0.0003111274725274,-0.0003349139194139,-0.0002685018315018
-0.0004644447619047,-0.0001759821733821,-0.0001733587301587,0.000318205054945,-0.000145891013431,-0.0001732511111111,-0.0005670344322344,-0.0001551253968253,-0.0003629637606837,-0.0003111274725274,-0.0003258619047619,-0.0002564324786324
-0.0004765872771672,-0.0001638463980463,-0.0001490285714285,0.000318205054945,-0.000164128083028,-0.0001550138949938,-0.0005761802197802,-0.0001885793650793,-0.0003659884004884,-0.0003020644688644,-0.0003077578754578,-0.0002353111111111
-0.0004674803907203,-0.0001577785103785,-0.0001490285714285,0.0003121444444444,-0.000158049059829,-0.0001519743589743,-0.000585326007326,-0.0002220333333333,-0.0003750623199023,-0.0002960224664224,-0.0002987058608058,-0.000226259096459
-0.0004583735042735,-0.0001577785103785,-0.0001581523809523,0.0003060838339438,-0.0001489305250305,-0.0001580534310134,-0.0005975203907203,-0.0002615698412698,-0.0003841362393162,-0.0002990434676434,-0.0002956885225885,-0.0002202244200244
-0.0004614091330891,-0.0001699142857142,-0.0001672761904761,0.0003151747496947,-0.000145891013431,-0.000167172039072,-0.0006127633699633,-0.0003071888888888,-0.0004083333577533,-0.0003111274725274,-0.0003047405372405,-0.0002232417582417
-0.0004856941636141,-0.000185084004884,-0.0001611936507936,0.0003333565811965,-0.0001610885714285,-0.0001732511111111,-0.0006249577533577,-0.000364973015873,-0.0004355551159951,-0.0003292534798534,-0.0003168098901098,-0.0002322937728937
-0.0004917654212454,-0.0001972197802197,-0.0001611936507936,0.0003424474969474,-0.000164128083028,-0.0001793301831501,-0.0006432493284493,-0.0004075507936507,-0.0004537029548229,-0.0003383164835164,-0.0003258619047619,-0.0002413457875457
-0.0005069435653235,-0.0002214913308913,-0.0001733587301587,0.0003636596336996,-0.0001671675946275,-0.0001975673992673,-0.0006462979242979,-0.0004410047619047,-0.0004658015140415,-0.0003473794871794,-0.0003349139194139,-0.0002564324786324
-0.000519086080586,-0.0002487968253968,-0.0001855238095238,0.0003818414652014,-0.0001671675946275,-0.0002158046153846,-0.0006523951159951,-0.0004805412698412,-0.0004869739926739,-0.0003594634920634,-0.0003500006105006,-0.0002775538461538
-0.0005251573382173,-0.0002791362637362,-0.0002098539682539,0.0004000232967032,-0.000158049059829,-0.0002431604395604,-0.0006584923076923,-0.0005139952380952,-0.0005111711111111,-0.0003775894993894,-0.0003711219780219,-0.0002986752136752
-0.0005221217094017,-0.000291272039072,-0.0002250603174603,0.0004060839072039,-0.0001489305250305,-0.0002583581196581,-0.0006615409035409,-0.0005474492063492,-0.0005293189499389,-0.0003957155067155,-0.0003922433455433,-0.0003228139194139
-0.0005251573382173,-0.0003155435897435,-0.0002463492063492,0.0004182051282051,-0.0001398119902319,-0.0002796348717948,-0.0006615409035409,-0.0005717793650793,-0.0005444421489621,-0.0004138415140415,-0.0004133647130647,-0.0003439352869352
-0.0005372998534798,-0.000342849084249,-0.0002645968253968,0.0004394172649572,-0.0001367724786324,-0.0003039511599511,-0.0006523951159951,-0.0005930682539682,-0.000553516068376,-0.0004198835164835,-0.0004224167277167,-0.0003590219780219
-0.0005433711111111,-0.0003640866910866,-0.0002737206349206,0.0004515384859584,-0.0001337329670329,-0.0003191488400488,-0.0006523951159951,-0.0006113158730158,-0.0005656146275946,-0.0004259255189255,-0.0004314687423687,-0.0003741086691086
-0.0005555136263736,-0.0003792564102564,-0.0002828444444444,0.00046669001221,-0.0001367724786324,-0.0003313069841269,-0.0006554437118437,-0.0006265222222222,-0.0005777131868131,-0.0004380095238095,-0.0004465554334554,-0.0003922126984126
-0.0005676561416361,-0.00039746007326,-0.0002889269841269,0.0004818415384615,-0.0001398119902319,-0.0003434651282051,-0.0006493465201465,-0.0006386873015873,-0.0005867871062271,-0.0004470725274725,-0.0004586247863247,-0.000404282051282
-0.000576763028083,-0.0004247655677655,-0.0003041333333333,0.0005000233699633,-0.0001367724786324,-0.0003647418803418,-0.0006371521367521,-0.0006417285714285,-0.0005867871062271,-0.0004470725274725,-0.0004646594627594,-0.0004072993894993
-0.0005797986568986,-0.000452071062271,-0.0003254222222222,0.0005151748962148,-0.0001276539438339,-0.0003890581684981,-0.0006341035409035,-0.0006478111111111,-0.0005928363858363,-0.0004531145299145,-0.0004706941391941,-0.000413334065934
-0.0005889055433455,-0.0004611728937728,-0.0003315047619047,0.0005242658119658,-0.0001276539438339,-0.0003951372405372,-0.0006371521367521,-0.0006569349206349,-0.0006019103052503,-0.0004591565323565,-0.0004767288156288,-0.0004254034188034
-0.0005828342857142,-0.0004611728937728,-0.000334546031746,0.0005212355067155,-0.0001246144322344,-0.0003981767765567,-0.0006402007326007,-0.0006690999999999,-0.0006109842246642,-0.0004682195360195,-0.0004857808302808,-0.0004374727716727
-0.0005828342857142,-0.0004672407814407,-0.0003436698412698,0.0005242658119658,-0.0001185354090354,-0.0004042558485958,-0.0006402007326007,-0.0006782238095238,-0.0006200581440781,-0.0004803035409035,-0.0004978501831501,-0.0004495421245421
-0.0005858699145299,-0.0004763426129426,-0.0003467111111111,0.0005303264224664,-0.0001185354090354,-0.0004103349206349,-0.0006341035409035,-0.0006782238095238,-0.0006230827838827,-0.0004893665445665,-0.0005069021978021,-0.0004555768009768
-0.0005980124297924,-0.0004824105006105,-0.0003436698412698,0.0005394173382173,-0.0001276539438339,-0.0004133744566544,-0.0006341035409035,-0.000681265079365,-0.0006261074236874,-0.0004923875457875,-0.0005069021978021,-0.0004555768009768
-0.0005980124297924,-0.0004824105006105,-0.0003406285714285,0.0005394173382173,-0.0001276539438339,-0.0004103349206349,-0.0006280063492063,-0.0006782238095238,-0.0006200581440781,-0.0004833245421245,-0.0005038848595848,-0.0004525594627594
-0.0006040836874236,-0.0004884783882783,-0.0003406285714285,0.0005454779487179,-0.0001306934554334,-0.0004133744566544,-0.0006249577533577,-0.0006751825396825,-0.0006170335042735,-0.0004833245421245,-0.0005038848595848,-0.0004525594627594
-0.000601048058608,-0.0004945462759462,-0.0003467111111111,0.0005454779487179,-0.0001276539438339,-0.0004194535286935,-0.0006249577533577,-0.0006751825396825,-0.0006200581440781,-0.0004893665445665,-0.0005129368742368,-0.0004585941391941
-0.0005889055433455,-0.0004915123321123,-0.0003588761904761,0.0005394173382173,-0.0001154958974358,-0.0004255326007326,-0.0006310549450549,-0.000681265079365,-0.0006261074236874,-0.0004954085470085,-0.0005189715506715,-0.0004676461538461
-0.0005828342857142,-0.0004945462759462,-0.0003649587301587,0.000536387032967,-0.0001094168742368,-0.0004285721367521,-0.0006341035409035,-0.0006782238095238,-0.000629132063492,-0.0004954085470085,-0.0005189715506715,-0.0004706634920634
-0.0005919411721611,-0.0004915123321123,-0.0003558349206349,0.0005394173382173,-0.0001185354090354,-0.000422493064713,-0.0006280063492063,-0.0006721412698412,-0.0006230827838827,-0.0004954085470085,-0.0005189715506715,-0.0004676461538461
-0.0005980124297924,-0.0005006141636141,-0.0003619174603174,0.0005485082539682,-0.0001185354090354,-0.0004316116727716,-0.0006219091575091,-0.0006721412698412,-0.0006261074236874,-0.0004984295482295,-0.0005250062271062,-0.0004736808302808
-0.0005949768009768,-0.0004975802197802,-0.0003558349206349,0.0005454779487179,-0.0001185354090354,-0.0004255326007326,-0.0006188605616605,-0.0006751825396825,-0.0006261074236874,-0.0005014505494505,-0.0005250062271062,-0.0004766981684981
-0.0006040836874236,-0.0004945462759462,-0.0003467111111111,0.0005485082539682,-0.0001276539438339,-0.0004194535286935,-0.0006219091575091,-0.0006721412698412,-0.0006230827838827,-0.0004984295482295,-0.0005250062271062,-0.0004766981684981
-0.0005949768009768,-0.0005036481074481,-0.0003649587301587,0.0005485082539682,-0.0001154958974358,-0.0004346512087912,-0.0006219091575091,-0.0006660587301587,-0.0006170335042735,-0.0004954085470085,-0.0005250062271062,-0.0004736808302808
-0.0005797986568986,-0.0005097159951159,-0.0003832063492063,0.0005424476434676,-9.725882783882755e-05,-0.0004468093528693,-0.0006219091575091,-0.0006599761904761,-0.0006140088644688,-0.0004923875457875,-0.0005250062271062,-0.0004736808302808
-0.0005858699145299,-0.0005157838827838,-0.0003832063492063,0.0005485082539682,-0.0001002983394383,-0.0004498488888888,-0.0006188605616605,-0.0006630174603174,-0.0006170335042735,-0.0004954085470085,-0.0005280235653235,-0.0004766981684981
-0.0005919411721611,-0.000506682051282,-0.0003679999999999,0.0005485082539682,-0.0001124563858363,-0.0004376907448107,-0.0006188605616605,-0.0006630174603174,-0.0006170335042735,-0.0004984295482295,-0.0005250062271062,-0.0004766981684981
-0.0005980124297924,-0.0005097159951159,-0.0003649587301587,0.0005515385592185,-0.0001154958974358,-0.0004376907448107,-0.0006188605616605,-0.0006569349206349,-0.0006140088644688,-0.0005044715506715,-0.0005310409035409,-0.0004766981684981
-0.0005919411721611,-0.0005188178266178,-0.000380165079365,0.0005545688644688,-0.0001063773626373,-0.0004498488888888,-0.0006188605616605,-0.0006569349206349,-0.0006140088644688,-0.0005044715506715,-0.0005370755799755,-0.0004827328449328
-0.0005858699145299,-0.0005127499389499,-0.000380165079365,0.0005485082539682,-0.0001033378510378,-0.0004468093528693,-0.0006158119658119,-0.0006508523809523,-0.0006109842246642,-0.0004984295482295,-0.0005310409035409,-0.0004797155067155
-0.0005858699145299,-0.000506682051282,-0.0003740825396825,0.0005454779487179,-0.0001063773626373,-0.0004407302808302,-0.0006127633699633,-0.0006508523809523,-0.0006079595848595,-0.0004954085470085,-0.0005280235653235,-0.0004797155067155
-0.0005889055433455,-0.0004975802197802,-0.0003619174603174,0.0005424476434676,-0.0001124563858363,-0.0004285721367521,-0.0006158119658119,-0.0006538936507936,-0.0006109842246642,-0.0004984295482295,-0.0005280235653235,-0.0004797155067155
-0.0005889055433455,-0.0004915123321123,-0.0003558349206349,0.0005394173382173,-0.0001154958974358,-0.000422493064713,-0.0006158119658119,-0.0006508523809523,-0.0006140088644688,-0.0005014505494505,-0.0005280235653235,-0.0004797155067155
-0.0005858699145299,-0.0004945462759462,-0.0003619174603174,0.0005394173382173,-0.0001124563858363,-0.0004285721367521,-0.0006158119658119,-0.0006447698412698,-0.0006109842246642,-0.0004984295482295,-0.0005280235653235,-0.0004766981684981
-0.0005797986568986,-0.0004975802197802,-0.0003710412698412,0.000536387032967,-0.0001033378510378,-0.0004346512087912,-0.0006158119658119,-0.0006417285714285,-0.0006049349450549,-0.0004923875457875,-0.0005250062271062,-0.0004706634920634
-0.000576763028083,-0.0004975802197802,-0.0003771238095238,0.000536387032967,-0.0001002983394383,-0.0004376907448107,-0.0006127633699633,-0.0006417285714285,-0.0006019103052503,-0.0004863455433455,-0.0005189715506715,-0.0004646288156288
-0.0005737273992673,-0.0004884783882783,-0.0003710412698412,0.0005303264224664,-0.0001002983394383,-0.0004285721367521,-0.0006158119658119,-0.0006417285714285,-0.0005988856654456,-0.0004833245421245,-0.0005159542124542,-0.0004646288156288
-0.0005676561416361,-0.0004854444444444,-0.0003710412698412,0.0005242658119658,-9.725882783882755e-05,-0.0004285721367521,-0.0006219091575091,-0.0006417285714285,-0.0005988856654456,-0.0004833245421245,-0.0005189715506715,-0.0004676461538461
-0.0005676561416361,-0.0004824105006105,-0.0003710412698412,0.0005242658119658,-9.725882783882755e-05,-0.0004255326007326,-0.0006249577533577,-0.0006386873015873,-0.0005988856654456,-0.0004863455433455,-0.0005129368742368,-0.0004676461538461
-0.0005706917704517,-0.0004763426129426,-0.0003649587301587,0.0005212355067155,-0.0001033378510378,-0.0004194535286935,-0.0006249577533577,-0.0006386873015873,-0.000595861025641,-0.0004803035409035,-0.0005129368742368,-0.0004646288156288
-0.000576763028083,-0.0004763426129426,-0.0003558349206349,0.0005242658119658,-0.0001094168742368,-0.0004164139926739,-0.0006188605616605,-0.0006386873015873,-0.0005898117460317,-0.0004772825396825,-0.0005099195360195,-0.0004585941391941
-0.0005858699145299,-0.0004763426129426,-0.0003467111111111,0.0005303264224664,-0.0001185354090354,-0.0004103349206349,-0.0006127633699633,-0.0006386873015873,-0.0005928363858363,-0.0004772825396825,-0.0005069021978021,-0.0004585941391941
-0.0005858699145299,-0.0004702747252747,-0.0003375873015873,0.0005272961172161,-0.0001246144322344,-0.0004042558485958,-0.0006158119658119,-0.0006386873015873,-0.0005928363858363,-0.0004742615384615,-0.0005069021978021,-0.0004585941391941
-0.0005737273992673,-0.0004611728937728,-0.0003436698412698,0.0005151748962148,-0.0001154958974358,-0.0004012163125763,-0.0006188605616605,-0.0006386873015873,-0.0005928363858363,-0.0004682195360195,-0.0005008675213675,-0.0004555768009768
-0.0005646205128205,-0.0004611728937728,-0.0003527936507936,0.0005121445909645,-0.0001063773626373,-0.0004072953846153,-0.0006280063492063,-0.0006417285714285,-0.0005928363858363,-0.0004682195360195,-0.0004978501831501,-0.0004525594627594
-0.0005737273992673,-0.0004581389499389,-0.0003436698412698,0.0005151748962148,-0.0001154958974358,-0.0004012163125763,-0.0006280063492063,-0.0006417285714285,-0.0005898117460317,-0.0004712405372405,-0.0005008675213675,-0.0004555768009768
-0.0005646205128205,-0.000452071062271,-0.0003436698412698,0.0005060839804639,-0.0001094168742368,-0.0003981767765567,-0.0006249577533577,-0.0006447698412698,-0.0005898117460317,-0.0004682195360195,-0.0004948328449328,-0.0004525594627594
-0.0005646205128205,-0.0004399352869352,-0.0003315047619047,0.0005000233699633,-0.0001154958974358,-0.0003860186324786,-0.0006249577533577,-0.0006447698412698,-0.0005867871062271,-0.0004621775335775,-0.0004887981684981,-0.0004435074481074
-0.0005585492551892,-0.0004429692307692,-0.0003406285714285,0.0005000233699633,-0.0001094168742368,-0.0003920977045177,-0.0006249577533577,-0.0006447698412698,-0.0005837624664224,-0.0004561355311355,-0.0004887981684981,-0.0004465247863247
-0.0005615848840048,-0.0004763426129426,-0.0003649587301587,0.0005182052014652,-9.725882783882755e-05,-0.0004194535286935,-0.0006219091575091,-0.0006447698412698,-0.0005867871062271,-0.0004561355311355,-0.0004918155067155,-0.0004495421245421
-0.0005737273992673,-0.0004854444444444,-0.0003649587301587,0.0005272961172161,-0.0001033378510378,-0.0004255326007326,-0.0006188605616605,-0.0006508523809523,-0.0005928363858363,-0.0004591565323565,-0.0004948328449328,-0.0004495421245421
-0.0005858699145299,-0.0004793765567765,-0.0003497523809523,0.0005303264224664,-0.0001185354090354,-0.0004133744566544,-0.0006219091575091,-0.0006538936507936,-0.000595861025641,-0.0004651985347985,-0.0004948328449328,-0.0004495421245421
-0.000576763028083,-0.0004672407814407,-0.0003467111111111,0.0005212355067155,-0.0001154958974358,-0.0004072953846153,-0.0006280063492063,-0.0006538936507936,-0.000595861025641,-0.0004621775335775,-0.0004918155067155,-0.0004495421245421
-0.0005646205128205,-0.0004702747252747,-0.0003588761904761,0.0005151748962148,-0.0001033378510378,-0.0004133744566544,-0.0006280063492063,-0.0006538936507936,-0.000595861025641,-0.0004591565323565,-0.0004887981684981,-0.0004465247863247
-0.0005737273992673,-0.0004702747252747,-0.0003527936507936,0.0005212355067155,-0.0001094168742368,-0.0004103349206349,-0.0006249577533577,-0.0006538936507936,-0.0005928363858363,-0.0004561355311355,-0.0004857808302808,-0.0004465247863247
-0.000576763028083,-0.0004702747252747,-0.0003467111111111,0.0005212355067155,-0.0001154958974358,-0.0004072953846153,-0.0006249577533577,-0.0006630174603174,-0.000595861025641,-0.0004621775335775,-0.0004918155067155,-0.0004495421245421
-0.000576763028083,-0.0004642068376068,-0.0003406285714285,0.0005182052014652,-0.0001185354090354,-0.0004012163125763,-0.0006249577533577,-0.0006660587301587,-0.0006019103052503,-0.0004682195360195,-0.0004978501831501,-0.0004525594627594
-0.0005797986568986,-0.0004581389499389,-0.000334546031746,0.0005182052014652,-0.0001215749206349,-0.0003951372405372,-0.0006249577533577,-0.0006660587301587,-0.0006019103052503,-0.0004651985347985,-0.0004978501831501,-0.0004525594627594
-0.0005889055433455,-0.0004642068376068,-0.0003315047619047,0.0005242658119658,-0.0001276539438339,-0.0003981767765567,-0.0006249577533577,-0.0006630174603174,-0.0005988856654456,-0.0004621775335775,-0.0004948328449328,-0.0004495421245421
-0.0005858699145299,-0.0004763426129426,-0.0003436698412698,0.0005303264224664,-0.0001215749206349,-0.0004103349206349,-0.0006280063492063,-0.0006660587301587,-0.0006019103052503,-0.0004651985347985,-0.0004978501831501,-0.0004555768009768
-0.0005737273992673,-0.0004793765567765,-0.0003619174603174,0.0005242658119658,-0.0001063773626373,-0.0004194535286935,-0.0006280063492063,-0.0006721412698412,-0.0006109842246642,-0.0004772825396825,-0.0005099195360195,-0.0004646288156288
-0.0005646205128205,-0.0004733086691086,-0.0003649587301587,0.0005182052014652,-0.0001002983394383,-0.0004194535286935,-0.0006219091575091,-0.0006751825396825,-0.0006140088644688,-0.0004833245421245,-0.0005129368742368,-0.0004676461538461
-0.000576763028083,-0.0004763426129426,-0.0003588761904761,0.0005242658119658,-0.0001094168742368,-0.0004164139926739,-0.0006188605616605,-0.0006751825396825,-0.0006109842246642,-0.0004772825396825,-0.0005069021978021,-0.0004646288156288
-0.0005858699145299,-0.0004824105006105,-0.0003558349206349,0.0005333567277167,-0.0001154958974358,-0.0004194535286935,-0.0006188605616605,-0.0006751825396825,-0.0006109842246642,-0.0004712405372405,-0.0005038848595848,-0.0004616114774114
-0.0005919411721611,-0.0004824105006105,-0.0003467111111111,0.000536387032967,-0.0001215749206349,-0.0004133744566544,-0.0006219091575091,-0.0006782238095238,-0.0006109842246642,-0.0004712405372405,-0.0005008675213675,-0.0004585941391941
-0.0005858699145299,-0.0004793765567765,-0.0003527936507936,0.0005303264224664,-0.0001154958974358,-0.0004164139926739,-0.0006280063492063,-0.0006782238095238,-0.0006079595848595,-0.0004712405372405,-0.0005008675213675,-0.0004616114774114
-0.0005858699145299,-0.0004945462759462,-0.0003679999999999,0.0005394173382173,-0.0001094168742368,-0.0004316116727716,-0.0006249577533577,-0.0006782238095238,-0.0006049349450549,-0.0004712405372405,-0.0005069021978021,-0.0004616114774114
-0.0005889055433455,-0.0004915123321123,-0.0003619174603174,0.0005394173382173,-0.0001124563858363,-0.0004255326007326,-0.0006280063492063,-0.0006782238095238,-0.0006079595848595,-0.0004712405372405,-0.0005069021978021,-0.0004585941391941
-0.0005828342857142,-0.0004824105006105,-0.0003558349206349,0.0005303264224664,-0.0001124563858363,-0.0004194535286935,-0.0006310549450549,-0.000681265079365,-0.0006109842246642,-0.0004712405372405,-0.0005008675213675,-0.0004555768009768
-0.0005919411721611,-0.0004824105006105,-0.0003467111111111,0.000536387032967,-0.0001215749206349,-0.0004133744566544,-0.0006310549450549,-0.000681265079365,-0.0006140088644688,-0.0004682195360195,-0.0005008675213675,-0.0004495421245421
-0.0005858699145299,-0.0004793765567765,-0.0003497523809523,0.0005303264224664,-0.0001185354090354,-0.0004133744566544,-0.0006280063492063,-0.000681265079365,-0.0006200581440781,-0.0004772825396825,-0.0005069021978021,-0.0004585941391941
-0.000576763028083,-0.0004793765567765,-0.0003588761904761,0.0005272961172161,-0.0001094168742368,-0.0004194535286935,-0.0006280063492063,-0.0006843063492063,-0.0006261074236874,-0.0004863455433455,-0.0005129368742368,-0.0004676461538461
-0.0005828342857142,-0.0004763426129426,-0.0003497523809523,0.0005272961172161,-0.0001154958974358,-0.0004133744566544,-0.0006280063492063,-0.0006873476190476,-0.0006230827838827,-0.0004833245421245,-0.0005099195360195,-0.0004616114774114
-0.0005828342857142,-0.0004824105006105,-0.0003527936507936,0.0005303264224664,-0.0001154958974358,-0.0004164139926739,-0.0006310549450549,-0.0006873476190476,-0.0006200581440781,-0.0004772825396825,-0.0005038848595848,-0.0004555768009768
-0.0005797986568986,-0.0004945462759462,-0.0003679999999999,0.000536387032967,-0.0001063773626373,-0.0004316116727716,-0.0006310549450549,-0.0006843063492063,-0.0006170335042735,-0.0004712405372405,-0.0005038848595848,-0.0004555768009768
-0.0005858699145299,-0.0005006141636141,-0.0003740825396825,0.0005424476434676,-0.0001063773626373,-0.0004376907448107,-0.0006280063492063,-0.000681265079365,-0.0006170335042735,-0.0004712405372405,-0.0005038848595848,-0.0004555768009768
-0.0005858699145299,-0.0004915123321123,-0.0003649587301587,0.000536387032967,-0.0001094168742368,-0.0004285721367521,-0.0006249577533577,-0.0006843063492063,-0.0006170335042735,-0.0004712405372405,-0.0005038848595848,-0.0004525594627594
-0.0005980124297924,-0.0004945462759462,-0.0003527936507936,0.0005454779487179,-0.0001215749206349,-0.000422493064713,-0.0006280063492063,-0.0006934301587301,-0.0006230827838827,-0.0004772825396825,-0.0005038848595848,-0.0004525594627594
-0.0005919411721611,-0.0004945462759462,-0.0003588761904761,0.0005424476434676,-0.0001154958974358,-0.0004255326007326,-0.0006310549450549,-0.0006934301587301,-0.0006261074236874,-0.0004803035409035,-0.0005069021978021,-0.0004555768009768
-0.000576763028083,-0.0004854444444444,-0.0003619174603174,0.0005303264224664,-0.0001063773626373,-0.000422493064713,-0.0006371521367521,-0.0006934301587301,-0.000629132063492,-0.0004833245421245,-0.0005099195360195,-0.0004585941391941
-0.0005737273992673,-0.0004793765567765,-0.0003588761904761,0.0005242658119658,-0.0001063773626373,-0.0004194535286935,-0.0006371521367521,-0.0006995126984126,-0.0006321567032967,-0.0004863455433455,-0.0005129368742368,-0.0004646288156288
-0.0005858699145299,-0.0004824105006105,-0.0003558349206349,0.0005333567277167,-0.0001154958974358,-0.0004194535286935,-0.0006310549450549,-0.0006964714285714,-0.000629132063492,-0.0004833245421245,-0.0005129368742368,-0.0004646288156288
-0.0005858699145299,-0.0004915123321123,-0.0003619174603174,0.000536387032967,-0.0001124563858363,-0.0004255326007326,-0.0006280063492063,-0.0006903888888888,-0.0006261074236874,-0.0004803035409035,-0.0005129368742368,-0.0004676461538461
-0.0005889055433455,-0.0004915123321123,-0.0003588761904761,0.0005394173382173,-0.0001154958974358,-0.0004255326007326,-0.0006280063492063,-0.0006873476190476,-0.0006230827838827,-0.0004772825396825,-0.0005069021978021,-0.0004646288156288
-0.000601048058608,-0.0004854444444444,-0.0003406285714285,0.0005424476434676,-0.0001306934554334,-0.0004133744566544,-0.0006249577533577,-0.0006843063492063,-0.0006200581440781,-0.0004742615384615,-0.0005008675213675,-0.0004525594627594
-0.0005889055433455,-0.0004793765567765,-0.0003497523809523,0.0005333567277167,-0.0001185354090354,-0.0004133744566544,-0.0006310549450549,-0.0006903888888888,-0.0006261074236874,-0.0004772825396825,-0.0005038848595848,-0.0004555768009768
-0.0005737273992673,-0.0004793765567765,-0.0003649587301587,0.0005242658119658,-0.0001033378510378,-0.000422493064713,-0.0006371521367521,-0.0006964714285714,-0.0006321567032967,-0.0004772825396825,-0.0005069021978021,-0.0004585941391941
-0.0005797986568986,-0.0004824105006105,-0.0003619174603174,0.0005303264224664,-0.0001094168742368,-0.000422493064713,-0.0006310549450549,-0.0006995126984126,-0.0006321567032967,-0.0004772825396825,-0.0005038848595848,-0.0004555768009768
-0.0005889055433455,-0.0004854444444444,-0.0003467111111111,0.000536387032967,-0.0001215749206349,-0.0004164139926739,-0.0006310549450549,-0.0006995126984126,-0.000629132063492,-0.0004772825396825,-0.0005008675213675,-0.0004525594627594
-0.0005949768009768,-0.0004854444444444,-0.0003436698412698,0.0005394173382173,-0.0001246144322344,-0.0004133744566544,-0.0006341035409035,-0.0007025539682539,-0.000629132063492,-0.0004742615384615,-0.0005008675213675,-0.0004525594627594
-0.0005858699145299,-0.0004824105006105,-0.0003527936507936,0.0005333567277167,-0.0001154958974358,-0.0004164139926739,-0.0006341035409035,-0.0007025539682539,-0.0006321567032967,-0.0004772825396825,-0.0005008675213675,-0.0004525594627594
-0.000576763028083,-0.0004702747252747,-0.0003497523809523,0.0005212355067155,-0.0001124563858363,-0.0004103349206349,-0.0006402007326007,-0.0007055952380952,-0.0006382059829059,-0.0004803035409035,-0.0005038848595848,-0.0004555768009768
-0.0005737273992673,-0.0004672407814407,-0.0003497523809523,0.0005182052014652,-0.0001124563858363,-0.0004072953846153,-0.0006432493284493,-0.0007116777777777,-0.0006412306227106,-0.0004863455433455,-0.0005129368742368,-0.0004646288156288
-0.0005737273992673,-0.0004793765567765,-0.0003588761904761,0.0005242658119658,-0.0001063773626373,-0.0004194535286935,-0.0006402007326007,-0.0007055952380952,-0.0006412306227106,-0.0004863455433455,-0.0005129368742368,-0.0004706634920634
-0.0005737273992673,-0.0004793765567765,-0.0003619174603174,0.0005242658119658,-0.0001063773626373,-0.0004194535286935,-0.0006371521367521,-0.0007025539682539,-0.0006351813431013,-0.0004803035409035,-0.0005099195360195,-0.0004676461538461
-0.0005797986568986,-0.0004824105006105,-0.0003588761904761,0.0005303264224664,-0.0001094168742368,-0.0004194535286935,-0.0006310549450549,-0.0007025539682539,-0.000629132063492,-0.0004772825396825,-0.0005069021978021,-0.0004616114774114
-0.0005889055433455,-0.0004854444444444,-0.0003497523809523,0.000536387032967,-0.0001185354090354,-0.0004164139926739,-0.0006280063492063,-0.0007025539682539,-0.000629132063492,-0.0004742615384615,-0.0005008675213675,-0.0004555768009768
-0.000601048058608,-0.0004854444444444,-0.0003375873015873,0.0005424476434676,-0.0001306934554334,-0.0004103349206349,-0.0006280063492063,-0.0006995126984126,-0.000629132063492,-0.0004682195360195,-0.0004948328449328,-0.0004465247863247
-0.0006040836874236,-0.0004884783882783,-0.0003406285714285,0.0005454779487179,-0.0001306934554334,-0.0004133744566544,-0.0006341035409035,-0.0007025539682539,-0.000629132063492,-0.0004682195360195,-0.0004918155067155,-0.0004435074481074
-0.000576763028083,-0.0004824105006105,-0.0003619174603174,0.0005272961172161,-0.0001063773626373,-0.000422493064713,-0.0006402007326007,-0.0007055952380952,-0.0006351813431013,-0.0004772825396825,-0.0005008675213675,-0.0004495421245421
-0.0005676561416361,-0.0004854444444444,-0.0003771238095238,0.0005242658119658,-9.421931623931596e-05,-0.0004316116727716,-0.0006432493284493,-0.0007116777777777,-0.0006412306227106,-0.0004833245421245,-0.0005099195360195,-0.0004585941391941
-0.000576763028083,-0.0004854444444444,-0.0003649587301587,0.0005303264224664,-0.0001063773626373,-0.0004255326007326,-0.0006371521367521,-0.0007055952380952,-0.0006382059829059,-0.0004833245421245,-0.0005099195360195,-0.0004555768009768
-0.0005797986568986,-0.0004793765567765,-0.0003558349206349,0.0005272961172161,-0.0001124563858363,-0.0004164139926739,-0.0006371521367521,-0.0007086365079365,-0.0006412306227106,-0.0004833245421245,-0.0005069021978021,-0.0004555768009768
-0.000576763028083,-0.0004793765567765,-0.0003558349206349,0.0005272961172161,-0.0001094168742368,-0.0004164139926739,-0.0006432493284493,-0.0007116777777777,-0.0006412306227106,-0.0004833245421245,-0.0005099195360195,-0.0004616114774114
-0.0005797986568986,-0.0004793765567765,-0.0003588761904761,0.0005272961172161,-0.0001094168742368,-0.0004194535286935,-0.0006432493284493,-0.000714719047619,-0.0006442552625152,-0.0004863455433455,-0.0005159542124542,-0.0004706634920634
-0.0005797986568986,-0.0004763426129426,-0.0003527936507936,0.0005272961172161,-0.0001124563858363,-0.0004133744566544,-0.0006402007326007,-0.000714719047619,-0.0006442552625152,-0.0004863455433455,-0.0005189715506715,-0.0004706634920634
-0.0005919411721611,-0.0004763426129426,-0.0003406285714285,0.0005333567277167,-0.0001246144322344,-0.0004072953846153,-0.0006310549450549,-0.000714719047619,-0.0006382059829059,-0.0004803035409035,-0.0005129368742368,-0.0004646288156288
-0.0005919411721611,-0.0004824105006105,-0.0003436698412698,0.000536387032967,-0.0001246144322344,-0.0004133744566544,-0.0006280063492063,-0.0007086365079365,-0.0006351813431013,-0.0004742615384615,-0.0005038848595848,-0.0004555768009768
-0.0005889055433455,-0.0004915123321123,-0.0003588761904761,0.0005394173382173,-0.0001154958974358,-0.0004255326007326,-0.0006249577533577,-0.0007055952380952,-0.0006321567032967,-0.0004742615384615,-0.0005008675213675,-0.0004525594627594
-0.0005919411721611,-0.0004884783882783,-0.0003527936507936,0.0005394173382173,-0.0001185354090354,-0.0004194535286935,-0.0006219091575091,-0.0007025539682539,-0.000629132063492,-0.0004682195360195,-0.0004948328449328,-0.0004435074481074
-0.0005919411721611,-0.0004854444444444,-0.0003497523809523,0.000536387032967,-0.0001215749206349,-0.0004164139926739,-0.0006280063492063,-0.0007055952380952,-0.0006321567032967,-0.0004712405372405,-0.0004948328449328,-0.0004404901098901
-0.0005828342857142,-0.0004733086691086,-0.0003467111111111,0.0005272961172161,-0.0001185354090354,-0.0004103349206349,-0.0006310549450549,-0.0007116777777777,-0.0006382059829059,-0.0004772825396825,-0.0004948328449328,-0.0004435074481074
-0.0005737273992673,-0.0004642068376068,-0.0003436698412698,0.0005182052014652,-0.0001154958974358,-0.0004042558485958,-0.0006371521367521,-0.0007177603174603,-0.0006382059829059,-0.0004803035409035,-0.0005008675213675,-0.0004495421245421
-0.000576763028083,-0.0004672407814407,-0.0003436698412698,0.0005212355067155,-0.0001154958974358,-0.0004042558485958,-0.0006371521367521,-0.000714719047619,-0.0006351813431013,-0.0004772825396825,-0.0005038848595848,-0.0004525594627594
-0.0005797986568986,-0.0004793765567765,-0.0003558349206349,0.0005272961172161,-0.0001124563858363,-0.0004164139926739,-0.0006310549450549,-0.0007116777777777,-0.0006351813431013,-0.0004772825396825,-0.0005038848595848,-0.0004555768009768
-0.000576763028083,-0.0004854444444444,-0.0003619174603174,0.0005303264224664,-0.0001063773626373,-0.000422493064713,-0.0006310549450549,-0.0007116777777777,-0.0006351813431013,-0.0004772825396825,-0.0005069021978021,-0.0004585941391941
-0.0005797986568986,-0.0004793765567765,-0.0003558349206349,0.0005272961172161,-0.0001124563858363,-0.0004164139926739,-0.0006310549450549,-0.0007116777777777,-0.0006321567032967,-0.0004742615384615,-0.0005038848595848,-0.0004525594627594
-0.0005889055433455,-0.0004824105006105,-0.0003527936507936,0.0005333567277167,-0.0001185354090354,-0.0004164139926739,-0.0006280063492063,-0.0007116777777777,-0.000629132063492,-0.0004682195360195,-0.0005008675213675,-0.0004465247863247
-0.0005858699145299,-0.0004824105006105,-0.0003527936507936,0.0005333567277167,-0.0001154958974358,-0.0004164139926739,-0.0006310549450549,-0.0007116777777777,-0.0006351813431013,-0.0004742615384615,-0.0005038848595848,-0.0004495421245421
-0.0005919411721611,-0.0004824105006105,-0.0003467111111111,0.000536387032967,-0.0001215749206349,-0.0004133744566544,-0.0006402007326007,-0.0007208015873015,-0.0006412306227106,-0.0004803035409035,-0.0005069021978021,-0.0004585941391941
-0.0005858699145299,-0.0004733086691086,-0.0003436698412698,0.0005272961172161,-0.0001215749206349,-0.0004072953846153,-0.0006341035409035,-0.0007208015873015,-0.0006412306227106,-0.0004833245421245,-0.0005129368742368,-0.0004616114774114
-0.0005797986568986,-0.0004672407814407,-0.0003436698412698,0.0005212355067155,-0.0001185354090354,-0.0004042558485958,-0.0006280063492063,-0.0007208015873015,-0.0006382059829059,-0.0004803035409035,-0.0005129368742368,-0.0004616114774114
-0.0005797986568986,-0.0004702747252747,-0.0003467111111111,0.0005242658119658,-0.0001154958974358,-0.0004072953846153,-0.0006219091575091,-0.0007238428571428,-0.0006382059829059,-0.0004803035409035,-0.0005129368742368,-0.0004585941391941
-0.0005797986568986,-0.0004733086691086,-0.0003497523809523,0.0005242658119658,-0.0001154958974358,-0.0004103349206349,-0.0006219091575091,-0.0007208015873015,-0.0006382059829059,-0.0004772825396825,-0.0005069021978021,-0.0004525594627594
-0.0005889055433455,-0.0004793765567765,-0.0003467111111111,0.0005333567277167,-0.0001215749206349,-0.0004133744566544,-0.0006188605616605,-0.000714719047619,-0.0006321567032967,-0.0004712405372405,-0.0005008675213675,-0.0004495421245421
-0.0005737273992673,-0.0004733086691086,-0.0003527936507936,0.0005212355067155,-0.0001094168742368,-0.0004133744566544,-0.0006188605616605,-0.0007116777777777,-0.0006351813431013,-0.0004742615384615,-0.0005008675213675,-0.0004495421245421
-0.000576763028083,-0.0004763426129426,-0.0003588761904761,0.0005242658119658,-0.0001094168742368,-0.0004164139926739,-0.0006249577533577,-0.0007208015873015,-0.0006412306227106,-0.0004772825396825,-0.0005099195360195,-0.0004585941391941
-0.0005889055433455,-0.0004824105006105,-0.0003497523809523,0.0005333567277167,-0.0001185354090354,-0.0004164139926739,-0.0006249577533577,-0.0007208015873015,-0.0006442552625152,-0.0004863455433455,-0.0005159542124542,-0.0004616114774114
-0.0005858699145299,-0.0004793765567765,-0.0003497523809523,0.0005303264224664,-0.0001185354090354,-0.0004133744566544,-0.0006249577533577,-0.0007238428571428,-0.0006442552625152,-0.0004893665445665,-0.0005189715506715,-0.0004646288156288
-0.0005797986568986,-0.0004733086691086,-0.0003527936507936,0.0005242658119658,-0.0001124563858363,-0.0004133744566544,-0.0006249577533577,-0.0007208015873015,-0.0006382059829059,-0.0004803035409035,-0.0005129368742368,-0.0004616114774114
-0.0005828342857142,-0.0004733086691086,-0.0003467111111111,0.0005272961172161,-0.0001185354090354,-0.0004103349206349,-0.0006219091575091,-0.0007177603174603,-0.0006351813431013,-0.0004772825396825,-0.0005038848595848,-0.0004525594627594
-0.0005889055433455,-0.0004733086691086,-0.0003436698412698,0.0005303264224664,-0.0001215749206349,-0.0004072953846153,-0.0006158119658119,-0.000714719047619,-0.000629132063492,-0.0004682195360195,-0.0004978501831501,-0.0004435074481074
-0.0005828342857142,-0.0004702747252747,-0.0003436698412698,0.0005242658119658,-0.0001185354090354,-0.0004072953846153,-0.0006188605616605,-0.0007116777777777,-0.000629132063492,-0.0004651985347985,-0.0004948328449328,-0.0004404901098901
-0.0005828342857142,-0.000455105006105,-0.0003284634920634,0.0005182052014652,-0.0001276539438339,-0.0003920977045177,-0.0006219091575091,-0.0007116777777777,-0.0006261074236874,-0.0004651985347985,-0.0004948328449328,-0.0004435074481074
-0.0005889055433455,-0.000455105006105,-0.0003162984126984,0.0005212355067155,-0.0001367724786324,-0.0003860186324786,-0.0006249577533577,-0.0007116777777777,-0.000629132063492,-0.0004682195360195,-0.0004918155067155,-0.0004435074481074
-0.000576763028083,-0.0004581389499389,-0.000334546031746,0.0005151748962148,-0.0001215749206349,-0.0003951372405372,-0.0006219091575091,-0.0007116777777777,-0.000629132063492,-0.0004712405372405,-0.0004978501831501,-0.0004465247863247
-0.0005706917704517,-0.0004672407814407,-0.0003527936507936,0.0005182052014652,-0.0001094168742368,-0.0004103349206349,-0.0006066661782661,-0.0006995126984126,-0.0006230827838827,-0.0004651985347985,-0.0005008675213675,-0.0004465247863247
-0.000576763028083,-0.0004672407814407,-0.0003497523809523,0.0005212355067155,-0.0001124563858363,-0.0004072953846153,-0.0006036175824175,-0.0006903888888888,-0.0006200581440781,-0.0004621775335775,-0.0004948328449328,-0.0004465247863247
-0.0005585492551892,-0.000452071062271,-0.0003497523809523,0.0005030536752136,-0.0001033378510378,-0.0004012163125763,-0.0006066661782661,-0.0006873476190476,-0.0006170335042735,-0.0004561355311355,-0.0004948328449328,-0.0004465247863247
-0.0005433711111111,-0.0004369013431013,-0.0003527936507936,0.0004879021489621,-9.421931623931596e-05,-0.0003951372405372,-0.0006066661782661,-0.0006782238095238,-0.0006049349450549,-0.0004470725274725,-0.0004857808302808,-0.0004404901098901
-0.0005372998534798,-0.0004308334554334,-0.0003497523809523,0.0004818415384615,-9.421931623931596e-05,-0.0003890581684981,-0.0005944717948717,-0.0006599761904761,-0.0005928363858363,-0.0004349885225885,-0.0004797461538461,-0.000431438095238
-0.0005372998534798,-0.0004247655677655,-0.0003467111111111,0.0004788112332112,-9.421931623931596e-05,-0.0003860186324786,-0.0005822774114774,-0.0006508523809523,-0.0005867871062271,-0.0004289465201465,-0.0004706941391941,-0.0004284207570207
-0.0005372998534798,-0.0004277995115995,-0.0003436698412698,0.0004818415384615,-9.725882783882755e-05,-0.0003860186324786,-0.0005944717948717,-0.0006599761904761,-0.0005988856654456,-0.0004380095238095,-0.0004706941391941,-0.0004284207570207
-0.0005342642246642,-0.0004308334554334,-0.0003527936507936,0.0004818415384615,-9.117980463980436e-05,-0.0003920977045177,-0.0006097147741147,-0.0006721412698412,-0.0006200581440781,-0.0004531145299145,-0.0004827634920634,-0.0004374727716727
-0.0005403354822954,-0.0004490371184371,-0.0003649587301587,0.0004939627594627,-8.814029304029276e-05,-0.0004072953846153,-0.0006097147741147,-0.000681265079365,-0.0006321567032967,-0.0004621775335775,-0.0004948328449328,-0.0004495421245421
-0.0005494423687423,-0.0004763426129426,-0.0003862476190476,0.0005121445909645,-8.206126984126955e-05,-0.0004316116727716,-0.0005975203907203,-0.0006782238095238,-0.0006321567032967,-0.0004682195360195,-0.0005069021978021,-0.0004585941391941
-0.0005494423687423,-0.0004793765567765,-0.0003892888888888,0.0005121445909645,-7.902175824175796e-05,-0.0004346512087912,-0.0006036175824175,-0.000681265079365,-0.0006230827838827,-0.0004621775335775,-0.0005008675213675,-0.0004495421245421
-0.0005555136263736,-0.0004611728937728,-0.0003619174603174,0.0005060839804639,-9.725882783882755e-05,-0.0004103349206349,-0.0006219091575091,-0.0006995126984126,-0.0006261074236874,-0.0004561355311355,-0.0004887981684981,-0.0004284207570207
-0.0005615848840048,-0.0004642068376068,-0.0003588761904761,0.0005121445909645,-0.0001002983394383,-0.0004103349206349,-0.0006341035409035,-0.0007177603174603,-0.0006412306227106,-0.0004651985347985,-0.0004918155067155,-0.000431438095238
-0.0005555136263736,-0.0004763426129426,-0.0003771238095238,0.0005151748962148,-8.814029304029276e-05,-0.0004255326007326,-0.0006341035409035,-0.0007238428571428,-0.0006533291819291,-0.0004803035409035,-0.0005069021978021,-0.0004465247863247
-0.0005585492551892,-0.0004793765567765,-0.0003771238095238,0.0005182052014652,-9.117980463980436e-05,-0.0004285721367521,-0.0006280063492063,-0.0007238428571428,-0.0006563538217338,-0.0004863455433455,-0.0005129368742368,-0.0004525594627594
-0.0005585492551892,-0.0004763426129426,-0.0003740825396825,0.0005151748962148,-9.117980463980436e-05,-0.0004255326007326,-0.0006310549450549,-0.0007268841269841,-0.0006593784615384,-0.0004923875457875,-0.0005129368742368,-0.0004555768009768
-0.0005555136263736,-0.0004763426129426,-0.0003771238095238,0.0005151748962148,-8.814029304029276e-05,-0.0004255326007326,-0.0006341035409035,-0.0007299253968253,-0.0006654277411477,-0.0004923875457875,-0.0005159542124542,-0.0004585941391941
-0.0005555136263736,-0.0004824105006105,-0.0003862476190476,0.0005182052014652,-8.510078144078116e-05,-0.0004346512087912,-0.0006402007326007,-0.0007360079365079,-0.000671477020757,-0.0004954085470085,-0.0005189715506715,-0.0004585941391941
-0.000576763028083,-0.0004915123321123,-0.0003710412698412,0.0005333567277167,-0.0001033378510378,-0.0004316116727716,-0.0006402007326007,-0.0007420904761904,-0.0006745016605616,-0.0004984295482295,-0.0005189715506715,-0.0004555768009768
-0.000601048058608,-0.0004945462759462,-0.0003497523809523,0.0005454779487179,-0.0001246144322344,-0.000422493064713,-0.0006310549450549,-0.0007420904761904,-0.000671477020757,-0.0004984295482295,-0.0005189715506715,-0.0004555768009768
-0.0005980124297924,-0.0004975802197802,-0.0003588761904761,0.0005454779487179,-0.0001185354090354,-0.0004285721367521,-0.0006249577533577,-0.0007451317460317,-0.0006684523809523,-0.0004954085470085,-0.0005189715506715,-0.0004555768009768
-0.0005949768009768,-0.0005188178266178,-0.000380165079365,0.0005545688644688,-0.0001063773626373,-0.0004498488888888,-0.0006188605616605,-0.0007451317460317,-0.0006654277411477,-0.0004923875457875,-0.0005189715506715,-0.0004585941391941
-0.0005919411721611,-0.0005188178266178,-0.0003832063492063,0.0005545688644688,-0.0001033378510378,-0.0004498488888888,-0.0006219091575091,-0.0007451317460317,-0.0006654277411477,-0.0004954085470085,-0.0005189715506715,-0.0004616114774114
-0.0005949768009768,-0.0005127499389499,-0.0003710412698412,0.0005515385592185,-0.0001124563858363,-0.0004407302808302,-0.0006249577533577,-0.0007512142857142,-0.000671477020757,-0.0004984295482295,-0.0005219888888888,-0.0004646288156288
-0.0005980124297924,-0.000506682051282,-0.0003588761904761,0.0005515385592185,-0.0001185354090354,-0.0004316116727716,-0.0006280063492063,-0.0007572968253968,-0.0006745016605616,-0.0005044715506715,-0.0005250062271062,-0.0004646288156288
-0.0005949768009768,-0.0004975802197802,-0.0003588761904761,0.0005454779487179,-0.0001185354090354,-0.0004285721367521,-0.0006310549450549,-0.0007542555555555,-0.000671477020757,-0.0005014505494505,-0.0005219888888888,-0.0004616114774114
-0.0005980124297924,-0.0005006141636141,-0.0003588761904761,0.0005485082539682,-0.0001185354090354,-0.0004285721367521,-0.0006310549450549,-0.0007420904761904,-0.0006593784615384,-0.0004863455433455,-0.0005129368742368,-0.0004525594627594
-0.0005949768009768,-0.0005006141636141,-0.0003619174603174,0.0005454779487179,-0.0001154958974358,-0.0004316116727716,-0.0006341035409035,-0.0007390492063492,-0.0006533291819291,-0.0004803035409035,-0.0005038848595848,-0.0004495421245421
-0.0005737273992673,-0.0004945462759462,-0.0003771238095238,0.0005333567277167,-9.725882783882755e-05,-0.0004346512087912,-0.0006432493284493,-0.0007420904761904,-0.0006593784615384,-0.0004833245421245,-0.0005099195360195,-0.0004525594627594
-0.0005676561416361,-0.0004945462759462,-0.000380165079365,0.0005303264224664,-9.421931623931596e-05,-0.0004376907448107,-0.0006432493284493,-0.000748173015873,-0.0006654277411477,-0.0004893665445665,-0.0005159542124542,-0.0004585941391941
-0.0005949768009768,-0.0004854444444444,-0.0003436698412698,0.0005394173382173,-0.0001246144322344,-0.0004133744566544,-0.0006341035409035,-0.000748173015873,-0.0006593784615384,-0.0004833245421245,-0.0005099195360195,-0.0004525594627594
-0.0006071193162393,-0.0004702747252747,-0.0003223809523809,0.000536387032967,-0.0001428515018315,-0.0003951372405372,-0.0006341035409035,-0.0007420904761904,-0.0006503045421245,-0.0004742615384615,-0.0005008675213675,-0.0004435074481074
-0.0005889055433455,-0.0004702747252747,-0.0003406285714285,0.0005272961172161,-0.0001246144322344,-0.0004042558485958,-0.0006341035409035,-0.0007238428571428,-0.0006321567032967,-0.0004712405372405,-0.0005069021978021,-0.0004555768009768
-0.0005858699145299,-0.0004611728937728,-0.0003284634920634,0.0005212355067155,-0.0001276539438339,-0.0003951372405372,-0.0006219091575091,-0.0006843063492063,-0.0005807378266178,-0.0004561355311355,-0.0005129368742368,-0.0004736808302808
-0.0005858699145299,-0.0003883582417582,-0.0002585142857142,0.0004848718437118,-0.000164128083028,-0.0003221883760683,-0.0006188605616605,-0.0006295634920634,-0.0005020971916971,-0.0004047785103785,-0.0004827634920634,-0.0004585941391941
-0.0005403354822954,-0.0002275592185592,-0.000142946031746,0.0003818414652014,-0.0001975627106227,-0.0001854092551892,-0.0006523951159951,-0.0005139952380952,-0.0003629637606837,-0.0002718544566544,-0.0003771566544566,-0.0003891953601953
-0.0004158747008547,2.1224175824176015e-05,-2.1295238095238e-05,0.0001969928449328,-0.0001975627106227,2.442002441966906e-09,-0.0007255614163614,-0.0003893031746031,-0.0001451896947496,-2.413235653235705e-05,-0.000184047008547,-0.0002564324786324
-0.0002732001465201,0.0003913653235653,0.0002037587301587,-5.755279609279607e-05,-0.0002370763614163,0.0002978769719169,-0.0008993313797313,-0.0004987888888888,6.351045177045169e-05,0.0003081777777777,0.0001267388278388,-5.993406593407194e-06
-0.0001365968498168,0.0008009477411477,0.0004713904761904,-0.0003302802686202,-0.0003039456166056,0.0006352654700854,-0.0011767536019536,-0.0008302873015873,0.0001905453235653,0.0006706979242979,0.0005069234432234,0.0003319484737484
-1.213606837606865e-05,0.0011316476190476,0.0006721142857142,-0.0005575531623931,-0.0003404197557997,0.0009027446398046,-0.0015273421245421,-0.0012378174603174,0.0001633235653235,0.000966756043956,0.0008569346764346,0.0006638556776556
7.286153846153818e-05,0.001322786080586,0.0007846412698412,-0.0006969472039072,-0.0003556173137973,0.0010547214407814,-0.0018261045177045,-0.0015662746031746,3.628869352869345e-05,0.001084575091575,0.0010621136752136,0.00090826007326
3.946962148962121e-05,0.0010861384615384,0.0005778349206349,-0.0005605834676434,-0.0002674714774114,0.0008328353113553,-0.001874882051282,-0.001706173015873,-0.0002661752869352,0.0007794539682539,0.0008720213675213,0.0008569653235653
-0.0001699887667887,0.0004277726495726,0.0001368507936507,-0.0001272498168498,-0.00015197003663,0.0002826792918192,-0.0016584317460317,-0.0017822047619047,-0.0007622162148962,0.0001118126984126,0.0003560565323565,0.0005341101343101
-0.000412839072039,2.425811965811985e-05,-2.1295238095238e-05,0.0001939625396825,-0.0001945231990231,2.442002441966906e-09,-0.0014480786324786,-0.0019221031746031,-0.0011856657875457,-0.0004047785103785,-2.71454212454214e-05,0.000283671062271
-0.0005646205128205,-0.0002093555555555,-0.0001034095238095,0.0003848717704517,-0.0002309973382173,-0.0001550138949938,-0.0012834544566544,-0.0018764841269841,-0.0013308484981684,-0.0006525006105006,-0.0002655151404151,8.754407814407754e-05
-0.000625333089133,-0.0003883582417582,-0.0002189777777777,0.0005060839804639,-0.0002036417338217,-0.0003039511599511,-0.0011493162393162,-0.0016453476190476,-0.0012431339438339,-0.0006917736263736,-0.000398278021978,-8.746153846153906e-05
-0.0006283687179487,-0.000455105006105,-0.0002828444444444,0.0005394173382173,-0.0001732466178266,-0.0003677814163614,-0.0010487125763125,-0.0014111698412698,-0.0011040005128205,-0.0006464586080586,-0.0004465554334554,-0.0002051377289377
-0.0006101549450549,-0.0004824105006105,-0.0003284634920634,0.0005454779487179,-0.0001398119902319,-0.0004042558485958,-0.0009359145299145,-0.0012074047619047,-0.0009799902808302,-0.0006071855921855,-0.0004767288156288,-0.0002956578754578
-0.0005919411721611,-0.0004854444444444,-0.0003467111111111,0.000536387032967,-0.0001215749206349,-0.0004164139926739,-0.0008078735042735,-0.0010066809523809,-0.0008650539682539,-0.0005679125763125,-0.0004978501831501,-0.0003620393162393
-0.000576763028083,-0.0004581389499389,-0.000334546031746,0.0005151748962148,-0.0001215749206349,-0.0003951372405372,-0.0007042212454212,-0.0008394111111111,-0.0007561669352869,-0.0005135345543345,-0.0004887981684981,-0.0003891953601953
-0.0005676561416361,-0.0004217316239316,-0.0003102158730158,0.0004939627594627,-0.0001276539438339,-0.0003647418803418,-0.0006432493284493,-0.0007329666666666,-0.0006684523809523,-0.0004651985347985,-0.0004676768009768,-0.000386178021978
-0.0005646205128205,-0.0004065619047619,-0.0002980507936507,0.0004848718437118,-0.0001337329670329,-0.0003525837362637,-0.0006158119658119,-0.0006903888888888,-0.000629132063492,-0.0004470725274725,-0.0004616421245421,-0.0003891953601953
-0.0005737273992673,-0.0004156637362637,-0.0002980507936507,0.0004939627594627,-0.0001367724786324,-0.0003556232722832,-0.0006036175824175,-0.0006721412698412,-0.0006170335042735,-0.0004470725274725,-0.0004676768009768,-0.0003982473748473
-0.0005858699145299,-0.0004247655677655,-0.0002980507936507,0.0005030536752136,-0.0001428515018315,-0.0003617023443223,-0.0005944717948717,-0.0006569349206349,-0.0006109842246642,-0.0004531145299145,-0.0004737114774114,-0.0004103167277167
-0.0005858699145299,-0.0004338673992673,-0.0003102158730158,0.0005091142857142,-0.0001367724786324,-0.0003708209523809,-0.0005822774114774,-0.0006478111111111,-0.0006079595848595,-0.0004591565323565,-0.0004857808302808,-0.0004254034188034
-0.0005676561416361,-0.0004399352869352,-0.0003284634920634,0.0005030536752136,-0.0001185354090354,-0.000382979096459,-0.0005792288156288,-0.0006447698412698,-0.0006079595848595,-0.0004682195360195,-0.0004948328449328,-0.0004404901098901
-0.0005646205128205,-0.0004399352869352,-0.0003284634920634,0.0005000233699633,-0.0001185354090354,-0.000382979096459,-0.0005761802197802,-0.000635646031746,-0.0005988856654456,-0.0004651985347985,-0.0004978501831501,-0.0004435074481074
