I,II,III,aVR,aVL,aVF,v1,v2,v3,v4,v5,v6
-0.0005524779975579,-0.000506682051282,-0.0004075365079365,0.0005272961172161,-7.294273504273476e-05,-0.0004559279609279,-0.0007743389499389,-0.0007572968253968,-0.0006503045421245,-0.0005286395604395,-0.0004887981684981,-0.0004344554334554
-0.0005464067399267,-0.0005036481074481,-0.000413619047619,0.0005242658119658,-6.686371184371155e-05,-0.0004589674969474,-0.0007804361416361,-0.0007572968253968,-0.0006533291819291,-0.0005346815628815,-0.0004948328449328,-0.0004404901098901
-0.0005312285958485,-0.0005127499389499,-0.0004349079365079,0.0005212355067155,-4.862664224664196e-05,-0.0004741651770451,-0.0007773875457875,-0.000760338095238,-0.0006593784615384,-0.0005437445665445,-0.0005069021978021,-0.0004495421245421
-0.0005312285958485,-0.0005097159951159,-0.0004318666666666,0.0005182052014652,-4.862664224664196e-05,-0.0004711256410256,-0.0007773875457875,-0.0007633793650793,-0.0006593784615384,-0.0005437445665445,-0.0005069021978021,-0.0004465247863247
-0.0005372998534798,-0.000506682051282,-0.0004227428571428,0.0005212355067155,-5.774517704517676e-05,-0.0004650465689865,-0.0007773875457875,-0.0007633793650793,-0.0006593784615384,-0.0005407235653235,-0.0005038848595848,-0.0004465247863247
-0.0005403354822954,-0.0005127499389499,-0.0004288253968253,0.0005242658119658,-5.470566544566516e-05,-0.0004711256410256,-0.0007743389499389,-0.0007572968253968,-0.0006563538217338,-0.0005346815628815,-0.0005008675213675,-0.0004465247863247
-0.0005312285958485,-0.0005248857142857,-0.000447073015873,0.0005272961172161,-4.254761904761877e-05,-0.0004863233211233,-0.0007743389499389,-0.0007542555555555,-0.0006533291819291,-0.0005346815628815,-0.0004978501831501,-0.0004435074481074
-0.0005281929670329,-0.0005218517704517,-0.0004440317460317,0.0005242658119658,-4.254761904761877e-05,-0.0004832837851037,-0.0007743389499389,-0.0007542555555555,-0.0006563538217338,-0.0005316605616605,-0.0004948328449328,-0.0004374727716727
-0.0005342642246642,-0.000506682051282,-0.0004257841269841,0.0005182052014652,-5.470566544566516e-05,-0.0004650465689865,-0.0007773875457875,-0.0007542555555555,-0.0006593784615384,-0.0005286395604395,-0.0004887981684981,-0.000431438095238
-0.0005403354822954,-0.0004945462759462,-0.0004075365079365,0.0005151748962148,-6.686371184371155e-05,-0.0004498488888888,-0.0007834847374847,-0.0007572968253968,-0.0006593784615384,-0.0005256185592185,-0.0004827634920634,-0.000422386080586
-0.0005403354822954,-0.0004975802197802,-0.0004105777777777,0.0005182052014652,-6.382420024419996e-05,-0.0004528884249084,-0.0007834847374847,-0.0007542555555555,-0.0006563538217338,-0.0005256185592185,-0.0004827634920634,-0.0004254034188034
-0.0005342642246642,-0.0005127499389499,-0.0004349079365079,0.0005212355067155,-4.862664224664196e-05,-0.0004741651770451,-0.0007743389499389,-0.0007512142857142,-0.0006563538217338,-0.0005286395604395,-0.0004887981684981,-0.000431438095238
-0.0005372998534798,-0.0005248857142857,-0.0004440317460317,0.0005303264224664,-4.558713064713037e-05,-0.0004832837851037,-0.0007651931623931,-0.0007512142857142,-0.0006563538217338,-0.0005286395604395,-0.0004918155067155,-0.0004344554334554
-0.0005433711111111,-0.0005218517704517,-0.0004288253968253,0.0005303264224664,-5.774517704517676e-05,-0.0004741651770451,-0.0007651931623931,-0.0007542555555555,-0.0006624031013431,-0.0005316605616605,-0.0004948328449328,-0.0004374727716727
-0.0005585492551892,-0.000506682051282,-0.0004014539682539,0.0005303264224664,-7.902175824175796e-05,-0.0004528884249084,-0.0007712903540903,-0.0007633793650793,-0.0006684523809523,-0.0005377025641025,-0.0004948328449328,-0.0004404901098901
-0.0005464067399267,-0.0004884783882783,-0.0003953714285714,0.0005151748962148,-7.598224664224636e-05,-0.0004407302808302,-0.0007773875457875,-0.0007694619047619,-0.0006745016605616,-0.0005437445665445,-0.0005008675213675,-0.0004435074481074
-0.0005281929670329,-0.0004884783882783,-0.0004105777777777,0.0005060839804639,-5.774517704517676e-05,-0.0004498488888888,-0.0007834847374847,-0.0007725031746031,-0.000671477020757,-0.0005467655677655,-0.0005038848595848,-0.0004495421245421
-0.0005251573382173,-0.0005036481074481,-0.0004288253968253,0.0005121445909645,-4.862664224664196e-05,-0.0004650465689865,-0.0007773875457875,-0.0007664206349206,-0.0006654277411477,-0.0005377025641025,-0.0005008675213675,-0.0004465247863247
-0.0005372998534798,-0.0005188178266178,-0.0004349079365079,0.0005272961172161,-5.166615384615356e-05,-0.0004772047130647,-0.0007651931623931,-0.0007572968253968,-0.0006563538217338,-0.0005286395604395,-0.0004948328449328,-0.0004404901098901
-0.0005403354822954,-0.0005127499389499,-0.0004257841269841,0.0005242658119658,-5.774517704517676e-05,-0.0004680861050061,-0.0007560473748473,-0.0007512142857142,-0.0006533291819291,-0.0005256185592185,-0.0004918155067155,-0.0004374727716727
-0.0005342642246642,-0.0005036481074481,-0.0004257841269841,0.0005182052014652,-5.470566544566516e-05,-0.0004650465689865,-0.0007529987789987,-0.0007512142857142,-0.0006533291819291,-0.0005256185592185,-0.0004857808302808,-0.000431438095238
-0.0005312285958485,-0.0004975802197802,-0.0004227428571428,0.0005121445909645,-5.470566544566516e-05,-0.0004589674969474,-0.0007499501831501,-0.0007512142857142,-0.0006533291819291,-0.0005256185592185,-0.0004887981684981,-0.000431438095238
-0.0005342642246642,-0.0005006141636141,-0.0004227428571428,0.0005151748962148,-5.470566544566516e-05,-0.000462007032967,-0.0007438529914529,-0.000748173015873,-0.0006503045421245,-0.0005256185592185,-0.0004887981684981,-0.000431438095238
-0.0005342642246642,-0.0004975802197802,-0.0004197015873015,0.0005151748962148,-5.774517704517676e-05,-0.0004589674969474,-0.0007377557997557,-0.0007420904761904,-0.0006472799023199,-0.0005225975579975,-0.0004887981684981,-0.000431438095238
-0.0005160504517704,-0.0004793765567765,-0.0004166603174603,0.000496993064713,-4.862664224664196e-05,-0.0004468093528693,-0.0007408043956043,-0.0007420904761904,-0.0006472799023199,-0.0005256185592185,-0.0004887981684981,-0.000431438095238
-0.0005039079365079,-0.000455105006105,-0.0004014539682539,0.0004788112332112,-5.166615384615356e-05,-0.0004285721367521,-0.0007408043956043,-0.0007329666666666,-0.0006382059829059,-0.0005135345543345,-0.0004767288156288,-0.000422386080586
-0.0005069435653235,-0.0004308334554334,-0.0003740825396825,0.00046669001221,-6.686371184371155e-05,-0.0004012163125763,-0.0007255614163614,-0.000714719047619,-0.0006170335042735,-0.0004954085470085,-0.0004586247863247,-0.0004072993894993
-0.0005069435653235,-0.0004186976800976,-0.0003649587301587,0.0004606294017094,-6.990322344322315e-05,-0.0003920977045177,-0.0007194642246642,-0.0007025539682539,-0.0006079595848595,-0.0004863455433455,-0.0004495727716727,-0.0003982473748473
-0.0005039079365079,-0.0004065619047619,-0.0003588761904761,0.0004545687912087,-7.294273504273476e-05,-0.000382979096459,-0.0007225128205128,-0.0006995126984126,-0.0005988856654456,-0.0004833245421245,-0.0004465554334554,-0.0003922126984126
-0.0005008723076923,-0.0004126297924297,-0.0003679999999999,0.0004545687912087,-6.686371184371155e-05,-0.0003890581684981,-0.0007255614163614,-0.0006843063492063,-0.0005898117460317,-0.0004712405372405,-0.000443538095238,-0.0003891953601953
-0.0004765872771672,-0.0004126297924297,-0.0003923301587301,0.0004424475702075,-4.254761904761877e-05,-0.0004012163125763,-0.0007438529914529,-0.0006782238095238,-0.0005867871062271,-0.0004712405372405,-0.0004465554334554,-0.0003922126984126
-0.0004614091330891,-0.0004156637362637,-0.000413619047619,0.0004363869597069,-2.4310549450549165e-05,-0.0004133744566544,-0.0007773875457875,-0.0006995126984126,-0.0006019103052503,-0.0004833245421245,-0.0004556074481074,-0.0003982473748473
-0.0004826585347985,-0.0004369013431013,-0.0004105777777777,0.000457599096459,-3.6468595848595565e-05,-0.000422493064713,-0.0007895819291819,-0.0007208015873015,-0.0006170335042735,-0.0004923875457875,-0.0004586247863247,-0.0004012647130647
-0.0004917654212454,-0.0004460031746031,-0.0004075365079365,0.00046669001221,-4.254761904761877e-05,-0.0004255326007326,-0.0007804361416361,-0.0007299253968253,-0.0006200581440781,-0.0004923875457875,-0.0004586247863247,-0.0004012647130647
-0.0004978366788766,-0.000452071062271,-0.0004075365079365,0.0004727506227106,-4.558713064713037e-05,-0.0004285721367521,-0.0007773875457875,-0.0007360079365079,-0.0006321567032967,-0.0005014505494505,-0.0004616421245421,-0.0004072993894993
-0.0005069435653235,-0.0004702747252747,-0.0004166603174603,0.0004879021489621,-4.558713064713037e-05,-0.0004437698168498,-0.0007865333333333,-0.000748173015873,-0.0006533291819291,-0.0005225975579975,-0.0004797461538461,-0.0004193687423687
-0.0005069435653235,-0.0004702747252747,-0.0004197015873015,0.0004879021489621,-4.254761904761877e-05,-0.0004437698168498,-0.0007895819291819,-0.0007512142857142,-0.0006563538217338,-0.0005256185592185,-0.0004857808302808,-0.000422386080586
-0.0004978366788766,-0.0004702747252747,-0.0004288253968253,0.0004818415384615,-3.342908424908396e-05,-0.0004498488888888,-0.0007926305250305,-0.000748173015873,-0.0006563538217338,-0.0005225975579975,-0.0004797461538461,-0.0004163514041514
-0.0005008723076923,-0.0004793765567765,-0.0004379492063492,0.0004879021489621,-3.0389572649572364e-05,-0.0004589674969474,-0.0007926305250305,-0.0007572968253968,-0.0006654277411477,-0.0005316605616605,-0.0004857808302808,-0.000422386080586
-0.0005008723076923,-0.0004975802197802,-0.0004531555555555,0.000496993064713,-2.4310549450549165e-05,-0.0004741651770451,-0.0007926305250305,-0.0007664206349206,-0.0006805509401709,-0.0005437445665445,-0.0004978501831501,-0.000431438095238
-0.000494801050061,-0.0005157838827838,-0.0004744444444444,0.0005030536752136,-9.11299145299117e-06,-0.0004954419291819,-0.0007895819291819,-0.0007694619047619,-0.0006866002197802,-0.0005467655677655,-0.0005008675213675,-0.0004344554334554
-0.0005069435653235,-0.0005309536019536,-0.0004744444444444,0.0005182052014652,-1.5192014652014368e-05,-0.000501521001221,-0.0007865333333333,-0.0007664206349206,-0.0006835755799755,-0.0005467655677655,-0.0005038848595848,-0.0004374727716727
-0.0005251573382173,-0.0005309536019536,-0.0004561968253968,0.0005272961172161,-3.342908424908396e-05,-0.0004924023931623,-0.0007834847374847,-0.0007694619047619,-0.0006835755799755,-0.0005467655677655,-0.0005038848595848,-0.0004374727716727
-0.0005403354822954,-0.0005309536019536,-0.000447073015873,0.0005333567277167,-4.558713064713037e-05,-0.0004893628571428,-0.0007743389499389,-0.0007694619047619,-0.0006805509401709,-0.0005497865689865,-0.0005069021978021,-0.0004435074481074
-0.0005494423687423,-0.0005430893772893,-0.0004501142857142,0.0005454779487179,-4.862664224664196e-05,-0.0004954419291819,-0.0007682417582417,-0.0007694619047619,-0.0006866002197802,-0.0005558285714285,-0.0005159542124542,-0.0004495421245421
-0.0005555136263736,-0.0005552251526251,-0.0004561968253968,0.0005545688644688,-4.862664224664196e-05,-0.0005045605372405,-0.0007712903540903,-0.0007755444444444,-0.0006956741391941,-0.0005679125763125,-0.0005280235653235,-0.0004646288156288
-0.0005524779975579,-0.0005552251526251,-0.000459238095238,0.0005515385592185,-4.558713064713037e-05,-0.00050760007326,-0.0007773875457875,-0.0007785857142857,-0.000704748058608,-0.0005739545787545,-0.0005340582417582,-0.0004706634920634
-0.0005524779975579,-0.000558259096459,-0.0004622793650793,0.0005545688644688,-4.558713064713037e-05,-0.0005106396092796,-0.0007773875457875,-0.0007816269841269,-0.000704748058608,-0.0005679125763125,-0.0005310409035409,-0.0004706634920634
-0.0005464067399267,-0.000558259096459,-0.0004622793650793,0.0005515385592185,-4.254761904761877e-05,-0.0005106396092796,-0.0007712903540903,-0.0007785857142857,-0.0006986987789987,-0.0005679125763125,-0.0005280235653235,-0.0004646288156288
-0.0005494423687423,-0.000558259096459,-0.0004622793650793,0.0005515385592185,-4.254761904761877e-05,-0.0005106396092796,-0.0007682417582417,-0.0007755444444444,-0.0006956741391941,-0.0005648915750915,-0.0005219888888888,-0.0004525594627594
-0.0005494423687423,-0.000558259096459,-0.0004683619047619,0.0005515385592185,-3.950810744810717e-05,-0.0005136791452991,-0.0007743389499389,-0.0007755444444444,-0.0006956741391941,-0.0005588495726495,-0.0005159542124542,-0.0004465247863247
-0.0005494423687423,-0.0005521912087912,-0.0004622793650793,0.0005485082539682,-4.254761904761877e-05,-0.00050760007326,-0.0007773875457875,-0.0007755444444444,-0.0006956741391941,-0.0005588495726495,-0.0005159542124542,-0.0004495421245421
-0.0005555136263736,-0.0005430893772893,-0.0004440317460317,0.0005485082539682,-5.470566544566516e-05,-0.0004924023931623,-0.0007773875457875,-0.0007785857142857,-0.0006986987789987,-0.0005618705738705,-0.0005189715506715,-0.0004525594627594
-0.0005555136263736,-0.0005309536019536,-0.0004318666666666,0.0005424476434676,-6.078468864468836e-05,-0.0004802442490842,-0.0007743389499389,-0.0007755444444444,-0.0006896248595848,-0.0005618705738705,-0.0005189715506715,-0.0004525594627594
-0.0005524779975579,-0.0005400554334554,-0.0004409904761904,0.0005454779487179,-5.470566544566516e-05,-0.0004893628571428,-0.0007682417582417,-0.0007694619047619,-0.0006805509401709,-0.0005558285714285,-0.0005159542124542,-0.0004495421245421
-0.0005433711111111,-0.0005461233211233,-0.0004531555555555,0.0005424476434676,-4.558713064713037e-05,-0.0004984814652014,-0.0007712903540903,-0.0007694619047619,-0.0006805509401709,-0.0005558285714285,-0.0005159542124542,-0.0004495421245421
-0.0005433711111111,-0.0005430893772893,-0.0004531555555555,0.0005424476434676,-4.558713064713037e-05,-0.0004984814652014,-0.0007773875457875,-0.0007694619047619,-0.0006805509401709,-0.0005497865689865,-0.0005099195360195,-0.0004495421245421
-0.0005433711111111,-0.0005370214896214,-0.000447073015873,0.0005394173382173,-4.862664224664196e-05,-0.0004924023931623,-0.0007804361416361,-0.000760338095238,-0.000671477020757,-0.0005377025641025,-0.0005069021978021,-0.0004525594627594
-0.0005494423687423,-0.0005218517704517,-0.0004257841269841,0.0005333567277167,-6.078468864468836e-05,-0.0004741651770451,-0.0007682417582417,-0.0007299253968253,-0.0006351813431013,-0.0005286395604395,-0.0005129368742368,-0.0004676461538461
-0.0005555136263736,-0.0004581389499389,-0.0003558349206349,0.0005060839804639,-0.0001002983394383,-0.0004072953846153,-0.0007651931623931,-0.0006934301587301,-0.0005686392673992,-0.0004984295482295,-0.0005008675213675,-0.0004646288156288
-0.0005281929670329,-0.0003246454212454,-0.000255473015873,0.0004242657387057,-0.0001367724786324,-0.0002887534798534,-0.0007865333333333,-0.0006143571428571,-0.0004537029548229,-0.0004077995115995,-0.000434486080586,-0.0004163514041514
-0.0004340884737484,-0.0001577785103785,-0.0001824825396825,0.0002939626129426,-0.0001246144322344,-0.0001702115750915,-0.0008292136752136,-0.0004714174603174,-0.0002722245665445,-0.0002174764346764,-0.0002956885225885,-0.0003258312576312
-0.0002883782905982,0.0001061746031746,-6.387301587301577e-05,9.093216117216122e-05,-0.0001124563858363,2.12791941391941e-05,-0.0009389631257631,-0.0004531698412698,-7.259833943833952e-05,5.139267399267347e-05,-6.637081807081822e-05,-0.0001568603174603
-0.0001396324786324,0.0004914854700854,0.000173346031746,-0.0001757347008547,-0.0001550095482295,0.0003313118681318,-0.0011767536019536,-0.0007055952380952,8.770757020757013e-05,0.0003837028083028,0.0002655363858363,0.0001328041514041
9.113333333333055e-06,0.0008585926739926,0.0003892761904761,-0.0004333106471306,-0.0001884441758241,0.0006231073260073,-0.0015060019536019,-0.0010735888888888,0.0001330771672771,0.0007039289377289,0.0006276169719169,0.000470746031746
0.0001396453724053,0.0011255797313797,0.000523092063492,-0.0006302804884004,-0.0001914836874236,0.0008237167032967,-0.0018535418803418,-0.0014324587301587,4.2337973137973054e-05,0.000906336019536,0.000905212087912,0.0007604105006105
0.0001973223199023,0.0011225457875457,0.0004622666666666,-0.0006575532356532,-0.0001306934554334,0.0007933213431013,-0.0020517006105006,-0.0016514301587301,-0.0001784607326007,0.0008066429792429,0.0009112467643467,0.0008660173382173
6.375465201465174e-05,0.0005855377289377,5.777777777777787e-05,-0.0003242196581196,3.045054945055228e-06,0.0003221932600732,-0.0019419511599511,-0.0017578746031746,-0.0006230827838827,0.0002598417582417,0.0005039061050061,0.0006366996336996
-0.0002185588278388,3.639389499389519e-05,-0.0002037714285714,9.093216117216122e-05,-6.07347985347957e-06,-8.206503052503056e-05,-0.0017102578754578,-0.0019312269841269,-0.0011070251526251,-0.0003232114774114,6.940940170940154e-05,0.0003621218559218
-0.0004310528449328,-0.00018205006105,-0.0002098539682539,0.0003060838339438,-0.0001094168742368,-0.0001945278632478,-0.0015303907203907,-0.0020285476190476,-0.0013580702564102,-0.0006464586080586,-0.0001810296703296,0.0001840989010989
-0.0005281929670329,-0.0003610527472527,-0.0002858857142857,0.0004424475702075,-0.0001215749206349,-0.0003221883760683,-0.0013810095238095,-0.0018491126984126,-0.0013459716971916,-0.0007552146520146,-0.0003469832722832,3.0586080586074578e-06
-0.0005676561416361,-0.0004793765567765,-0.0003619174603174,0.0005212355067155,-0.0001033378510378,-0.0004194535286935,-0.00127126007326,-0.001593646031746,-0.0012159121855921,-0.0007431306471306,-0.0004314687423687,-0.0001447909645909
-0.0005858699145299,-0.0005157838827838,-0.0003832063492063,0.0005485082539682,-0.0001002983394383,-0.0004498488888888,-0.0011615106227106,-0.001368592063492,-0.001082828034188,-0.0006978156288156,-0.0004737114774114,-0.0002503978021978
-0.000576763028083,-0.0005370214896214,-0.000413619047619,0.0005545688644688,-8.206126984126955e-05,-0.0004741651770451,-0.0010212752136752,-0.0011496206349206,-0.0009557931623931,-0.0006525006105006,-0.0004978501831501,-0.0003258312576312
-0.0005433711111111,-0.0005248857142857,-0.0004379492063492,0.0005333567277167,-5.166615384615356e-05,-0.0004802442490842,-0.0008932341880341,-0.0009458555555555,-0.0008408568498168,-0.0006041645909645,-0.0004978501831501,-0.0003680739926739
-0.0005160504517704,-0.0004884783882783,-0.0004288253968253,0.0005000233699633,-4.254761904761877e-05,-0.0004589674969474,-0.0008139706959706,-0.0008059571428571,-0.0007440683760683,-0.0005528075702075,-0.0004827634920634,-0.0003831606837606
-0.000519086080586,-0.0004672407814407,-0.0004044952380952,0.0004909324542124,-5.774517704517676e-05,-0.0004346512087912,-0.0007743389499389,-0.0007360079365079,-0.0006866002197802,-0.0005256185592185,-0.0004737114774114,-0.0003891953601953
-0.0005312285958485,-0.0004733086691086,-0.0003984126984126,0.0005000233699633,-6.686371184371155e-05,-0.0004346512087912,-0.0007499501831501,-0.0007055952380952,-0.0006654277411477,-0.0005195765567765,-0.0004767288156288,-0.00039523003663
-0.0005372998534798,-0.0004824105006105,-0.0003984126984126,0.0005091142857142,-6.990322344322315e-05,-0.0004407302808302,-0.0007347072039072,-0.0006964714285714,-0.0006624031013431,-0.0005316605616605,-0.0004918155067155,-0.000413334065934
-0.0005281929670329,-0.0004884783882783,-0.0004105777777777,0.0005060839804639,-5.774517704517676e-05,-0.0004498488888888,-0.0007316586080586,-0.0006843063492063,-0.0006593784615384,-0.0005346815628815,-0.0005038848595848,-0.0004254034188034
-0.0005251573382173,-0.0004915123321123,-0.0004227428571428,0.0005060839804639,-5.166615384615356e-05,-0.0004559279609279,-0.00072861001221,-0.0006660587301587,-0.0006503045421245,-0.0005316605616605,-0.0005038848595848,-0.000431438095238
-0.0005312285958485,-0.0004975802197802,-0.0004227428571428,0.0005121445909645,-5.470566544566516e-05,-0.0004589674969474,-0.0007194642246642,-0.0006508523809523,-0.0006351813431013,-0.0005256185592185,-0.0005008675213675,-0.000431438095238
-0.0005342642246642,-0.0005036481074481,-0.0004227428571428,0.0005182052014652,-5.470566544566516e-05,-0.000462007032967,-0.0007103184371184,-0.0006417285714285,-0.0006261074236874,-0.0005225975579975,-0.0005008675213675,-0.0004344554334554
-0.0005342642246642,-0.000506682051282,-0.0004288253968253,0.0005182052014652,-5.166615384615356e-05,-0.0004680861050061,-0.0007042212454212,-0.000635646031746,-0.0006230827838827,-0.0005256185592185,-0.0005069021978021,-0.0004374727716727
-0.0005372998534798,-0.000506682051282,-0.0004197015873015,0.0005212355067155,-5.774517704517676e-05,-0.000462007032967,-0.0007011726495726,-0.0006295634920634,-0.0006170335042735,-0.0005225975579975,-0.0005099195360195,-0.0004374727716727
-0.0005372998534798,-0.0005097159951159,-0.0004197015873015,0.0005212355067155,-5.774517704517676e-05,-0.0004650465689865,-0.0007011726495726,-0.0006204396825396,-0.0006140088644688,-0.0005225975579975,-0.0005038848595848,-0.0004344554334554
-0.0005342642246642,-0.000506682051282,-0.0004197015873015,0.0005182052014652,-5.774517704517676e-05,-0.000462007032967,-0.0007042212454212,-0.0006173984126984,-0.0006170335042735,-0.0005286395604395,-0.0005099195360195,-0.0004404901098901
-0.0005372998534798,-0.0005036481074481,-0.0004227428571428,0.0005182052014652,-5.774517704517676e-05,-0.000462007032967,-0.0007103184371184,-0.0006204396825396,-0.0006261074236874,-0.0005377025641025,-0.0005219888888888,-0.0004555768009768
-0.0005281929670329,-0.0004975802197802,-0.0004227428571428,0.0005121445909645,-5.166615384615356e-05,-0.0004589674969474,-0.000713367032967,-0.0006204396825396,-0.0006230827838827,-0.0005377025641025,-0.0005250062271062,-0.0004585941391941
-0.0005281929670329,-0.0004915123321123,-0.0004197015873015,0.0005091142857142,-5.470566544566516e-05,-0.0004559279609279,-0.0007103184371184,-0.0006143571428571,-0.0006140088644688,-0.0005316605616605,-0.0005159542124542,-0.0004495421245421
-0.0005281929670329,-0.0004915123321123,-0.0004166603174603,0.0005091142857142,-5.470566544566516e-05,-0.0004528884249084,-0.0007072698412698,-0.000602192063492,-0.0006049349450549,-0.0005225975579975,-0.0005069021978021,-0.0004404901098901
-0.0005251573382173,-0.0005006141636141,-0.0004288253968253,0.0005121445909645,-4.862664224664196e-05,-0.0004650465689865,-0.0007042212454212,-0.0005961095238095,-0.0006019103052503,-0.0005225975579975,-0.0005069021978021,-0.0004404901098901
-0.0005312285958485,-0.0005157838827838,-0.0004379492063492,0.0005212355067155,-4.558713064713037e-05,-0.0004772047130647,-0.0007042212454212,-0.0005900269841269,-0.0005988856654456,-0.0005225975579975,-0.0005129368742368,-0.0004435074481074
-0.0005251573382173,-0.0005157838827838,-0.0004440317460317,0.0005182052014652,-3.950810744810717e-05,-0.0004802442490842,-0.0007011726495726,-0.0005778619047619,-0.0005928363858363,-0.0005195765567765,-0.0005129368742368,-0.0004404901098901
-0.0005221217094017,-0.0005127499389499,-0.0004440317460317,0.0005151748962148,-3.950810744810717e-05,-0.0004772047130647,-0.000698124053724,-0.0005748206349206,-0.0005898117460317,-0.0005165555555555,-0.0005069021978021,-0.0004374727716727
-0.0005251573382173,-0.000506682051282,-0.0004379492063492,0.0005151748962148,-4.254761904761877e-05,-0.0004711256410256,-0.000698124053724,-0.0005748206349206,-0.0005898117460317,-0.0005135345543345,-0.0005038848595848,-0.0004344554334554
-0.000519086080586,-0.000506682051282,-0.0004409904761904,0.0005121445909645,-3.950810744810717e-05,-0.0004741651770451,-0.0007011726495726,-0.0005717793650793,-0.000595861025641,-0.0005195765567765,-0.0005099195360195,-0.0004404901098901
-0.0005221217094017,-0.0005127499389499,-0.0004379492063492,0.0005151748962148,-4.254761904761877e-05,-0.0004741651770451,-0.0006950754578754,-0.000568738095238,-0.000595861025641,-0.0005286395604395,-0.0005189715506715,-0.0004525594627594
-0.0005251573382173,-0.0005097159951159,-0.0004440317460317,0.0005151748962148,-3.950810744810717e-05,-0.0004772047130647,-0.0006889782661782,-0.0005596142857142,-0.0005898117460317,-0.0005286395604395,-0.0005250062271062,-0.0004585941391941
-0.0005221217094017,-0.0005127499389499,-0.0004501142857142,0.0005151748962148,-3.6468595848595565e-05,-0.0004802442490842,-0.000682881074481,-0.0005504904761904,-0.0005837624664224,-0.0005225975579975,-0.0005219888888888,-0.0004585941391941
-0.0005281929670329,-0.0005127499389499,-0.0004409904761904,0.0005182052014652,-4.254761904761877e-05,-0.0004772047130647,-0.0006859296703296,-0.0005413666666666,-0.0005807378266178,-0.0005195765567765,-0.0005159542124542,-0.0004495421245421
-0.0005312285958485,-0.0005127499389499,-0.0004349079365079,0.0005212355067155,-4.862664224664196e-05,-0.0004741651770451,-0.0006859296703296,-0.0005322428571428,-0.0005777131868131,-0.0005195765567765,-0.0005159542124542,-0.0004495421245421
-0.0005221217094017,-0.0005127499389499,-0.000447073015873,0.0005151748962148,-3.6468595848595565e-05,-0.0004802442490842,-0.0006859296703296,-0.0005261603174603,-0.0005746885470085,-0.0005165555555555,-0.0005159542124542,-0.0004495421245421
-0.0005160504517704,-0.0005157838827838,-0.0004561968253968,0.0005151748962148,-3.0389572649572364e-05,-0.0004863233211233,-0.0006798324786324,-0.0005170365079365,-0.0005716639072039,-0.0005195765567765,-0.0005189715506715,-0.0004495421245421
-0.0005099791941391,-0.0005097159951159,-0.0004501142857142,0.0005091142857142,-3.0389572649572364e-05,-0.0004802442490842,-0.0006798324786324,-0.0005109539682539,-0.0005686392673992,-0.0005165555555555,-0.0005189715506715,-0.0004495421245421
-0.0005069435653235,-0.0005006141636141,-0.0004501142857142,0.0005030536752136,-2.735006105006077e-05,-0.0004741651770451,-0.000682881074481,-0.0005048714285714,-0.0005716639072039,-0.0005225975579975,-0.0005189715506715,-0.0004525594627594
-0.0005099791941391,-0.0005006141636141,-0.0004440317460317,0.0005030536752136,-3.342908424908396e-05,-0.0004711256410256,-0.0006798324786324,-0.0004927063492063,-0.0005686392673992,-0.0005225975579975,-0.0005189715506715,-0.0004555768009768
-0.0005069435653235,-0.000506682051282,-0.0004531555555555,0.0005060839804639,-2.735006105006077e-05,-0.0004802442490842,-0.0006737352869352,-0.0004805412698412,-0.0005625899877899,-0.0005225975579975,-0.0005280235653235,-0.0004646288156288
-0.0005069435653235,-0.0005127499389499,-0.000459238095238,0.0005091142857142,-2.4310549450549165e-05,-0.0004863233211233,-0.0006615409035409,-0.0004653349206349,-0.000553516068376,-0.0005165555555555,-0.0005250062271062,-0.0004646288156288
-0.0005069435653235,-0.0005188178266178,-0.0004653206349206,0.0005121445909645,-2.1271037851037568e-05,-0.0004924023931623,-0.0006554437118437,-0.0004470873015873,-0.0005444421489621,-0.0005105135531135,-0.0005219888888888,-0.0004585941391941
-0.000494801050061,-0.0005188178266178,-0.0004774857142857,0.0005060839804639,-9.11299145299117e-06,-0.0004984814652014,-0.0006645894993894,-0.0004410047619047,-0.0005444421489621,-0.0005105135531135,-0.0005219888888888,-0.0004555768009768
-0.0004917654212454,-0.0005157838827838,-0.0004805269841269,0.0005030536752136,-6.07347985347957e-06,-0.0004984814652014,-0.0006645894993894,-0.0004227571428571,-0.0005383928693528,-0.0005074925518925,-0.0005189715506715,-0.0004525594627594
-0.0004917654212454,-0.000506682051282,-0.0004683619047619,0.000496993064713,-1.2152503052502767e-05,-0.0004863233211233,-0.0006584923076923,-0.0004075507936507,-0.0005353682295482,-0.0005044715506715,-0.0005129368742368,-0.0004465247863247
-0.0004978366788766,-0.0004975802197802,-0.0004561968253968,0.000496993064713,-2.1271037851037568e-05,-0.0004772047130647,-0.0006554437118437,-0.0003953857142857,-0.0005323435897435,-0.0005044715506715,-0.0005129368742368,-0.0004465247863247
-0.0004917654212454,-0.0004945462759462,-0.000459238095238,0.0004909324542124,-1.5192014652014368e-05,-0.0004772047130647,-0.0006523951159951,-0.0003740968253968,-0.000520245030525,-0.0005014505494505,-0.0005099195360195,-0.0004435074481074
-0.0004826585347985,-0.0004975802197802,-0.0004683619047619,0.0004879021489621,-6.07347985347957e-06,-0.0004832837851037,-0.0006493465201465,-0.0003588904761904,-0.0005172203907203,-0.0005014505494505,-0.0005159542124542,-0.0004465247863247
-0.0004796229059829,-0.0004915123321123,-0.0004683619047619,0.0004848718437118,-6.07347985347957e-06,-0.0004802442490842,-0.0006523951159951,-0.0003376015873015,-0.0005051218315018,-0.0004954085470085,-0.0005129368742368,-0.0004435074481074
-0.0004796229059829,-0.0004793765567765,-0.000459238095238,0.0004788112332112,-9.11299145299117e-06,-0.0004680861050061,-0.0006523951159951,-0.0003163126984126,-0.0004990725518925,-0.0004863455433455,-0.0005038848595848,-0.0004404901098901
-0.0004765872771672,-0.0004733086691086,-0.0004501142857142,0.0004727506227106,-1.2152503052502767e-05,-0.000462007032967,-0.0006493465201465,-0.0003041476190476,-0.0004930232722832,-0.0004863455433455,-0.0005069021978021,-0.0004465247863247
-0.0004674803907203,-0.0004642068376068,-0.0004501142857142,0.0004636597069597,-9.11299145299117e-06,-0.0004559279609279,-0.0006432493284493,-0.0002828587301587,-0.0004839493528693,-0.0004803035409035,-0.0005038848595848,-0.0004465247863247
-0.0004583735042735,-0.000452071062271,-0.000447073015873,0.0004545687912087,-6.07347985347957e-06,-0.0004498488888888,-0.0006402007326007,-0.0002585285714285,-0.0004718507936507,-0.0004742615384615,-0.0004948328449328,-0.0004374727716727
-0.0004614091330891,-0.0004399352869352,-0.0004349079365079,0.0004485081807081,-1.2152503052502767e-05,-0.0004376907448107,-0.0006402007326007,-0.0002372396825396,-0.0004627768742368,-0.0004742615384615,-0.0004918155067155,-0.000431438095238
-0.0004614091330891,-0.0004186976800976,-0.0004166603174603,0.0004394172649572,-2.1271037851037568e-05,-0.0004164139926739,-0.0006402007326007,-0.000218992063492,-0.0004537029548229,-0.0004621775335775,-0.0004797461538461,-0.0004163514041514
-0.0004462309890109,-0.0004126297924297,-0.0004227428571428,0.000427296043956,-1.2152503052502767e-05,-0.0004164139926739,-0.0006402007326007,-0.0001946619047619,-0.0004416043956043,-0.0004500935286935,-0.0004676768009768,-0.0004012647130647
-0.0004371241025641,-0.0004095958485958,-0.0004257841269841,0.0004212354334554,-6.07347985347957e-06,-0.0004164139926739,-0.0006341035409035,-0.0001672904761904,-0.0004264811965811,-0.0004380095238095,-0.0004525901098901,-0.0003831606837606
-0.0004401597313797,-0.0003853242979242,-0.0004014539682539,0.0004121445177045,-1.823152625152597e-05,-0.0003920977045177,-0.0006280063492063,-0.0001429603174603,-0.0004113579975579,-0.0004229045177045,-0.000434486080586,-0.0003620393162393
-0.0004340884737484,-0.0003671206349206,-0.0003892888888888,0.0004000232967032,-2.1271037851037568e-05,-0.00037690002442,-0.0006310549450549,-0.0001247126984126,-0.000402284078144,-0.0004138415140415,-0.0004284514041514,-0.0003590219780219
-0.0004280172161172,-0.0003610527472527,-0.0003892888888888,0.0003939626862026,-1.823152625152597e-05,-0.0003738604884004,-0.0006280063492063,-0.0001125476190476,-0.0003992594383394,-0.0004108205128205,-0.0004284514041514,-0.0003560046398046
-0.0004158747008547,-0.000342849084249,-0.0003771238095238,0.0003788111599511,-1.823152625152597e-05,-0.0003586628083028,-0.0006341035409035,-0.000106465079365,-0.0003992594383394,-0.0004108205128205,-0.0004224167277167,-0.0003469526251526
-0.000412839072039,-0.0003185775335775,-0.0003558349206349,0.0003636596336996,-2.735006105006077e-05,-0.000337386056166,-0.0006371521367521,-0.0001003825396825,-0.0003962347985347,-0.0004047785103785,-0.0004103473748473,-0.0003318659340659
-0.0004067678144078,-0.0002973399267399,-0.0003436698412698,0.0003515384126984,-3.0389572649572364e-05,-0.0003191488400488,-0.0006432493284493,-9.429999999999968e-05,-0.0003871608791208,-0.0003926945054945,-0.0003952606837606,-0.0003167792429792
-0.0004158747008547,-0.000288238095238,-0.0003315047619047,0.0003515384126984,-4.254761904761877e-05,-0.0003100302319902,-0.0006402007326007,-9.125873015872984e-05,-0.0003750623199023,-0.0003775894993894,-0.0003801739926739,-0.0002986752136752
-0.0004189103296703,-0.0002821702075702,-0.0003162984126984,0.0003485081074481,-5.166615384615356e-05,-0.000297872087912,-0.0006341035409035,-8.821746031746001e-05,-0.0003659884004884,-0.0003685264957264,-0.0003650873015873,-0.0002866058608058
-0.0004098034432234,-0.0002700344322344,-0.0003132571428571,0.0003394171916971,-4.862664224664196e-05,-0.000291793015873,-0.0006462979242979,-0.0001034238095238,-0.0003720376800976,-0.0003745684981684,-0.0003681046398046,-0.0002896231990231
-0.0003946252991452,-0.0002487968253968,-0.0003102158730158,0.0003212353601953,-4.254761904761877e-05,-0.0002796348717948,-0.0006615409035409,-0.0001247126984126,-0.0003811115995115,-0.0003806105006105,-0.0003711219780219,-0.0002866058608058
-0.0003946252991452,-0.0002275592185592,-0.0002889269841269,0.0003091141391941,-5.166615384615356e-05,-0.0002583581196581,-0.0006737352869352,-0.0001520841269841,-0.0003871608791208,-0.0003775894993894,-0.0003620699633699,-0.0002745365079365
-0.0004067678144078,-0.0002123894993894,-0.0002615555555555,0.0003091141391941,-7.294273504273476e-05,-0.0002370813675213,-0.0006798324786324,-0.0001824968253968,-0.0003871608791208,-0.0003655054945054,-0.0003439659340659,-0.0002534151404151
-0.0004067678144078,-0.0002154234432234,-0.0002645968253968,0.0003091141391941,-6.990322344322315e-05,-0.0002401209035409,-0.0006859296703296,-0.000218992063492,-0.0003932101587301,-0.0003624844932844,-0.0003349139194139,-0.0002443631257631
-0.0004158747008547,-0.0002305931623931,-0.0002737206349206,0.0003212353601953,-6.990322344322315e-05,-0.000252279047619,-0.0006889782661782,-0.0002585285714285,-0.0004053087179487,-0.0003685264957264,-0.0003379312576312,-0.0002413457875457
-0.0004280172161172,-0.000236661050061,-0.0002645968253968,0.0003303262759462,-8.206126984126955e-05,-0.0002492395115995,-0.0007011726495726,-0.0003102301587301,-0.0004234565567765,-0.0003745684981684,-0.0003349139194139,-0.0002353111111111
-0.0004249815873015,-0.000236661050061,-0.0002645968253968,0.0003303262759462,-7.902175824175796e-05,-0.0002492395115995,-0.0007194642246642,-0.0003619317460317,-0.0004537029548229,-0.0003957155067155,-0.0003469832722832,-0.0002473804639804
-0.0004280172161172,-0.0002457628815628,-0.0002737206349206,0.0003363868864468,-7.598224664224636e-05,-0.0002583581196581,-0.00072861001221,-0.000410592063492,-0.00047790007326,-0.0004138415140415,-0.0003681046398046,-0.0002654844932844
-0.0004492666178266,-0.0002700344322344,-0.0002767619047619,0.000357599023199,-8.510078144078116e-05,-0.0002735557997557,-0.0007225128205128,-0.0004501285714285,-0.0004899986324786,-0.0004229045177045,-0.0003801739926739,-0.0002775538461538
-0.0004735516483516,-0.0003034078144078,-0.0002858857142857,0.000387902075702,-9.421931623931596e-05,-0.0002948325518925,-0.0007164156288156,-0.0004866238095238,-0.0005051218315018,-0.0004289465201465,-0.000389226007326,-0.0002896231990231
-0.0004765872771672,-0.0003276793650793,-0.0003071746031746,0.0004000232967032,-8.510078144078116e-05,-0.0003161093040293,-0.0007194642246642,-0.0005200777777777,-0.000520245030525,-0.0004349885225885,-0.000398278021978,-0.0003047098901098
-0.0004735516483516,-0.0003519509157509,-0.0003315047619047,0.0004121445177045,-6.990322344322315e-05,-0.0003404255921855,-0.0007255614163614,-0.0005535317460317,-0.0005383928693528,-0.0004500935286935,-0.0004133647130647,-0.0003258312576312
-0.0004826585347985,-0.0003822903540903,-0.0003558349206349,0.0004303263492063,-6.382420024419996e-05,-0.0003677814163614,-0.00072861001221,-0.0005869857142857,-0.0005656146275946,-0.0004772825396825,-0.000443538095238,-0.0003529873015873
-0.000494801050061,-0.0004035279609279,-0.0003619174603174,0.0004485081807081,-6.686371184371155e-05,-0.000382979096459,-0.0007316586080586,-0.0006173984126984,-0.0005898117460317,-0.0005014505494505,-0.0004646594627594,-0.000377126007326
-0.0005099791941391,-0.0004277995115995,-0.0003710412698412,0.00046669001221,-6.990322344322315e-05,-0.0003981767765567,-0.00072861001221,-0.0006386873015873,-0.0006049349450549,-0.0005105135531135,-0.0004767288156288,-0.0003922126984126
-0.000519086080586,-0.0004611728937728,-0.0003984126984126,0.0004879021489621,-6.078468864468836e-05,-0.0004285721367521,-0.0007225128205128,-0.0006478111111111,-0.0006109842246642,-0.0005135345543345,-0.0004857808302808,-0.0004012647130647
-0.0005221217094017,-0.0004915123321123,-0.0004227428571428,0.0005060839804639,-4.862664224664196e-05,-0.0004559279609279,-0.0007164156288156,-0.0006599761904761,-0.0006230827838827,-0.0005225975579975,-0.0004918155067155,-0.0004103167277167
-0.0005281929670329,-0.000506682051282,-0.0004318666666666,0.0005151748962148,-4.862664224664196e-05,-0.0004680861050061,-0.0007225128205128,-0.0006782238095238,-0.0006382059829059,-0.0005377025641025,-0.0005099195360195,-0.0004284207570207
-0.0005312285958485,-0.0005097159951159,-0.0004318666666666,0.0005182052014652,-4.862664224664196e-05,-0.0004711256410256,-0.0007225128205128,-0.0006934301587301,-0.0006533291819291,-0.0005528075702075,-0.0005250062271062,-0.0004435074481074
-0.0005372998534798,-0.0005157838827838,-0.0004349079365079,0.0005242658119658,-5.166615384615356e-05,-0.0004741651770451,-0.0007225128205128,-0.0007025539682539,-0.0006624031013431,-0.0005648915750915,-0.0005340582417582,-0.0004525594627594
-0.0005433711111111,-0.0005400554334554,-0.0004501142857142,0.0005394173382173,-4.558713064713037e-05,-0.0004954419291819,-0.0007164156288156,-0.0007086365079365,-0.0006654277411477,-0.0005739545787545,-0.0005461275946275,-0.0004616114774114
-0.0005433711111111,-0.0005521912087912,-0.0004622793650793,0.0005454779487179,-3.950810744810717e-05,-0.00050760007326,-0.0007194642246642,-0.0007116777777777,-0.000671477020757,-0.0005769755799755,-0.0005491449328449,-0.0004646288156288
-0.0005464067399267,-0.0005552251526251,-0.0004622793650793,0.0005485082539682,-4.254761904761877e-05,-0.00050760007326,-0.0007164156288156,-0.0007116777777777,-0.000671477020757,-0.0005739545787545,-0.0005461275946275,-0.0004646288156288
-0.0005555136263736,-0.000561293040293,-0.0004622793650793,0.0005575991697191,-4.558713064713037e-05,-0.0005106396092796,-0.000713367032967,-0.000714719047619,-0.0006745016605616,-0.0005739545787545,-0.0005461275946275,-0.0004676461538461
-0.0005585492551892,-0.0005734288156288,-0.0004653206349206,0.0005636597802197,-4.558713064713037e-05,-0.0005197582173382,-0.0007103184371184,-0.000714719047619,-0.0006775263003663,-0.0005769755799755,-0.0005461275946275,-0.0004676461538461
-0.0005555136263736,-0.0005764627594627,-0.0004744444444444,0.0005636597802197,-3.950810744810717e-05,-0.0005258372893772,-0.0007072698412698,-0.0007116777777777,-0.0006775263003663,-0.0005799965811965,-0.0005491449328449,-0.0004676461538461
-0.0005524779975579,-0.0005855645909645,-0.0004896507936507,0.00056669008547,-3.0389572649572364e-05,-0.0005379954334554,-0.0007103184371184,-0.0007086365079365,-0.0006805509401709,-0.0005860385836385,-0.0005581969474969,-0.0004706634920634
-0.0005524779975579,-0.0005885985347985,-0.0004896507936507,0.0005697203907203,-3.0389572649572364e-05,-0.0005379954334554,-0.0007072698412698,-0.0007116777777777,-0.0006896248595848,-0.0005920805860805,-0.0005672489621489,-0.0004797155067155
-0.0005676561416361,-0.0005946664224664,-0.0004805269841269,0.0005788113064713,-4.254761904761877e-05,-0.0005379954334554,-0.0007042212454212,-0.0007116777777777,-0.0006956741391941,-0.0006011435897435,-0.0005763009768009,-0.0004917848595848
-0.0005737273992673,-0.0006068021978021,-0.0004896507936507,0.0005879022222222,-4.254761904761877e-05,-0.000547114041514,-0.000698124053724,-0.0007055952380952,-0.0006926494993894,-0.0006041645909645,-0.0005793183150183,-0.0004948021978021
-0.0005615848840048,-0.00061287008547,-0.0005048571428571,0.0005848719169719,-2.735006105006077e-05,-0.0005592721855921,-0.000698124053724,-0.0007025539682539,-0.0006866002197802,-0.0006011435897435,-0.0005763009768009,-0.0004887675213675
-0.0005524779975579,-0.0006098361416361,-0.0005109396825396,0.0005788113064713,-2.1271037851037568e-05,-0.0005592721855921,-0.000698124053724,-0.0007025539682539,-0.0006866002197802,-0.0006011435897435,-0.0005763009768009,-0.0004857501831501
-0.0005524779975579,-0.0006037682539682,-0.0005078984126984,0.000575781001221,-2.1271037851037568e-05,-0.0005562326495726,-0.0007011726495726,-0.0007025539682539,-0.0006926494993894,-0.0006071855921855,-0.0005793183150183,-0.0004887675213675
-0.0005615848840048,-0.0006007343101343,-0.000492692063492,0.0005788113064713,-3.342908424908396e-05,-0.000547114041514,-0.0007042212454212,-0.0007025539682539,-0.0006956741391941,-0.0006071855921855,-0.0005793183150183,-0.0004887675213675
-0.000576763028083,-0.0006007343101343,-0.0004774857142857,0.0005879022222222,-4.862664224664196e-05,-0.0005379954334554,-0.000698124053724,-0.0006995126984126,-0.0006926494993894,-0.0006041645909645,-0.0005793183150183,-0.0004887675213675
-0.0005585492551892,-0.0006037682539682,-0.0004987746031746,0.0005788113064713,-3.0389572649572364e-05,-0.0005501535775335,-0.000698124053724,-0.0006934301587301,-0.0006866002197802,-0.0006041645909645,-0.0005853529914529,-0.0004917848595848
-0.0005433711111111,-0.000615904029304,-0.000526146031746,0.0005788113064713,-9.11299145299117e-06,-0.0005714303296703,-0.000698124053724,-0.0006873476190476,-0.0006866002197802,-0.0006102065934065,-0.0005913876678876,-0.0004948021978021
-0.0005433711111111,-0.0006098361416361,-0.0005200634920634,0.000575781001221,-1.2152503052502767e-05,-0.0005653512576312,-0.000698124053724,-0.0006873476190476,-0.0006926494993894,-0.0006162485958485,-0.0005913876678876,-0.0005008368742368
-0.0005555136263736,-0.0006007343101343,-0.0005018158730158,0.000575781001221,-2.735006105006077e-05,-0.0005501535775335,-0.000698124053724,-0.0006873476190476,-0.0006896248595848,-0.0006132275946275,-0.0005883703296703,-0.0005008368742368
-0.0005585492551892,-0.0005977003663003,-0.000492692063492,0.000575781001221,-3.342908424908396e-05,-0.0005440745054945,-0.0006950754578754,-0.0006873476190476,-0.0006866002197802,-0.0006102065934065,-0.0005913876678876,-0.0005008368742368
-0.0005494423687423,-0.0006007343101343,-0.0005018158730158,0.0005727506959706,-2.4310549450549165e-05,-0.0005501535775335,-0.0006920268620268,-0.000681265079365,-0.0006866002197802,-0.0006102065934065,-0.0005913876678876,-0.0005038542124542
-0.0005555136263736,-0.0006068021978021,-0.0005048571428571,0.0005788113064713,-2.4310549450549165e-05,-0.0005562326495726,-0.0006920268620268,-0.0006751825396825,-0.0006805509401709,-0.0006041645909645,-0.0005853529914529,-0.0004978195360195
-0.0005615848840048,-0.0006037682539682,-0.0004957333333333,0.0005818416117216,-3.342908424908396e-05,-0.0005501535775335,-0.0006920268620268,-0.0006660587301587,-0.000671477020757,-0.0005981225885225,-0.0005793183150183,-0.0004917848595848
-0.0005555136263736,-0.0006007343101343,-0.0004957333333333,0.000575781001221,-3.0389572649572364e-05,-0.000547114041514,-0.0006920268620268,-0.0006690999999999,-0.000671477020757,-0.0005981225885225,-0.0005823356532356,-0.0004917848595848
-0.0005585492551892,-0.0005946664224664,-0.0004896507936507,0.000575781001221,-3.342908424908396e-05,-0.0005410349694749,-0.0006920268620268,-0.0006690999999999,-0.0006775263003663,-0.0006041645909645,-0.0005823356532356,-0.0004887675213675
-0.0005646205128205,-0.0005825306471306,-0.0004744444444444,0.0005727506959706,-4.558713064713037e-05,-0.0005288768253968,-0.0006950754578754,-0.0006630174603174,-0.000671477020757,-0.0005951015873015,-0.0005702663003663,-0.0004797155067155
-0.0005555136263736,-0.0005764627594627,-0.0004744444444444,0.0005636597802197,-3.950810744810717e-05,-0.0005258372893772,-0.000698124053724,-0.0006630174603174,-0.0006684523809523,-0.0005860385836385,-0.0005642316239316,-0.0004766981684981
-0.0005464067399267,-0.0005825306471306,-0.0004896507936507,0.0005636597802197,-2.735006105006077e-05,-0.0005349558974358,-0.0006950754578754,-0.0006569349206349,-0.0006624031013431,-0.0005830175824175,-0.0005642316239316,-0.0004766981684981
-0.0005433711111111,-0.0005946664224664,-0.0005048571428571,0.00056669008547,-1.823152625152597e-05,-0.0005501535775335,-0.0006889782661782,-0.0006538936507936,-0.0006593784615384,-0.0005860385836385,-0.0005642316239316,-0.0004766981684981
-0.0005433711111111,-0.0005885985347985,-0.0004987746031746,0.0005636597802197,-2.1271037851037568e-05,-0.0005440745054945,-0.0006950754578754,-0.0006599761904761,-0.0006624031013431,-0.0005890595848595,-0.0005672489621489,-0.0004766981684981
-0.0005342642246642,-0.0005764627594627,-0.000492692063492,0.0005545688644688,-2.1271037851037568e-05,-0.0005349558974358,-0.0007011726495726,-0.0006599761904761,-0.0006624031013431,-0.0005890595848595,-0.0005672489621489,-0.0004766981684981
-0.0005372998534798,-0.0005643269841269,-0.0004805269841269,0.0005485082539682,-2.735006105006077e-05,-0.0005227977533577,-0.0007072698412698,-0.0006630174603174,-0.0006654277411477,-0.0005860385836385,-0.0005642316239316,-0.0004797155067155
-0.0005433711111111,-0.000558259096459,-0.0004653206349206,0.0005485082539682,-3.950810744810717e-05,-0.0005106396092796,-0.0007103184371184,-0.0006599761904761,-0.0006624031013431,-0.0005799965811965,-0.0005581969474969,-0.0004797155067155
-0.0005555136263736,-0.000558259096459,-0.000459238095238,0.0005545688644688,-4.862664224664196e-05,-0.00050760007326,-0.0007072698412698,-0.0006599761904761,-0.0006624031013431,-0.0005799965811965,-0.0005612142857142,-0.0004827328449328
-0.0005433711111111,-0.0005552251526251,-0.0004653206349206,0.0005485082539682,-3.950810744810717e-05,-0.0005106396092796,-0.000713367032967,-0.0006690999999999,-0.0006684523809523,-0.0005860385836385,-0.0005642316239316,-0.0004827328449328
-0.0005221217094017,-0.0005430893772893,-0.0004714031746031,0.0005303264224664,-2.4310549450549165e-05,-0.00050760007326,-0.0007225128205128,-0.0006721412698412,-0.0006745016605616,-0.0005830175824175,-0.0005612142857142,-0.0004797155067155
-0.0005251573382173,-0.0005370214896214,-0.0004653206349206,0.0005303264224664,-3.0389572649572364e-05,-0.000501521001221,-0.0007255614163614,-0.0006751825396825,-0.0006684523809523,-0.0005739545787545,-0.0005461275946275,-0.0004676461538461
-0.0005494423687423,-0.0005461233211233,-0.0004501142857142,0.0005454779487179,-4.862664224664196e-05,-0.0004984814652014,-0.000713367032967,-0.0006630174603174,-0.0006533291819291,-0.0005558285714285,-0.0005280235653235,-0.0004465247863247
-0.0005555136263736,-0.000561293040293,-0.0004622793650793,0.0005575991697191,-4.558713064713037e-05,-0.0005106396092796,-0.0007072698412698,-0.0006599761904761,-0.0006503045421245,-0.0005528075702075,-0.0005310409035409,-0.0004495421245421
-0.0005372998534798,-0.000561293040293,-0.0004774857142857,0.0005485082539682,-3.0389572649572364e-05,-0.0005197582173382,-0.000713367032967,-0.0006690999999999,-0.0006624031013431,-0.0005648915750915,-0.0005431102564102,-0.0004616114774114
-0.0005312285958485,-0.0005461233211233,-0.0004683619047619,0.000536387032967,-3.0389572649572364e-05,-0.00050760007326,-0.0007194642246642,-0.0006751825396825,-0.000671477020757,-0.0005679125763125,-0.0005431102564102,-0.0004585941391941
-0.0005403354822954,-0.0005491572649572,-0.0004622793650793,0.0005424476434676,-3.950810744810717e-05,-0.0005045605372405,-0.0007194642246642,-0.0006751825396825,-0.000671477020757,-0.0005679125763125,-0.0005400929181929,-0.0004555768009768
-0.0005372998534798,-0.0005461233211233,-0.0004622793650793,0.0005394173382173,-3.6468595848595565e-05,-0.0005045605372405,-0.0007225128205128,-0.0006782238095238,-0.0006745016605616,-0.0005739545787545,-0.0005461275946275,-0.0004585941391941
-0.0005342642246642,-0.0005400554334554,-0.0004622793650793,0.000536387032967,-3.6468595848595565e-05,-0.000501521001221,-0.0007316586080586,-0.0006903888888888,-0.0006835755799755,-0.0005799965811965,-0.0005551796092796,-0.0004646288156288
-0.0005372998534798,-0.0005430893772893,-0.0004622793650793,0.0005394173382173,-3.6468595848595565e-05,-0.000501521001221,-0.0007316586080586,-0.0006934301587301,-0.0006866002197802,-0.0005799965811965,-0.0005551796092796,-0.0004646288156288
-0.0005403354822954,-0.0005552251526251,-0.0004683619047619,0.0005454779487179,-3.6468595848595565e-05,-0.0005106396092796,-0.0007255614163614,-0.0006843063492063,-0.0006805509401709,-0.0005739545787545,-0.0005491449328449,-0.0004616114774114
-0.0005433711111111,-0.000561293040293,-0.0004744444444444,0.0005515385592185,-3.342908424908396e-05,-0.0005167186813186,-0.0007255614163614,-0.0006782238095238,-0.0006775263003663,-0.0005679125763125,-0.0005400929181929,-0.0004555768009768
-0.0005403354822954,-0.000558259096459,-0.0004714031746031,0.0005485082539682,-3.342908424908396e-05,-0.0005136791452991,-0.00072861001221,-0.0006873476190476,-0.0006835755799755,-0.0005739545787545,-0.0005431102564102,-0.0004616114774114
-0.0005372998534798,-0.0005552251526251,-0.0004744444444444,0.0005454779487179,-3.0389572649572364e-05,-0.0005136791452991,-0.00072861001221,-0.0006903888888888,-0.0006866002197802,-0.0005830175824175,-0.0005551796092796,-0.0004706634920634
-0.0005372998534798,-0.000558259096459,-0.0004714031746031,0.0005454779487179,-3.342908424908396e-05,-0.0005136791452991,-0.00072861001221,-0.0006934301587301,-0.0006866002197802,-0.0005799965811965,-0.0005581969474969,-0.0004706634920634
-0.0005342642246642,-0.000561293040293,-0.0004774857142857,0.0005454779487179,-2.735006105006077e-05,-0.0005197582173382,-0.00072861001221,-0.0006903888888888,-0.0006835755799755,-0.0005739545787545,-0.0005551796092796,-0.0004676461538461
-0.0005281929670329,-0.0005703948717948,-0.000492692063492,0.0005485082539682,-1.823152625152597e-05,-0.0005319163614163,-0.00072861001221,-0.0006903888888888,-0.0006866002197802,-0.0005769755799755,-0.0005581969474969,-0.0004706634920634
-0.0005342642246642,-0.0005703948717948,-0.0004896507936507,0.0005515385592185,-2.1271037851037568e-05,-0.0005288768253968,-0.00072861001221,-0.0006995126984126,-0.0006896248595848,-0.0005769755799755,-0.0005521622710622,-0.0004706634920634
-0.0005372998534798,-0.0005673609279609,-0.0004805269841269,0.0005515385592185,-2.735006105006077e-05,-0.0005227977533577,-0.00072861001221,-0.0006995126984126,-0.0006926494993894,-0.0005769755799755,-0.0005521622710622,-0.0004706634920634
-0.0005494423687423,-0.0005673609279609,-0.0004714031746031,0.0005575991697191,-3.950810744810717e-05,-0.0005197582173382,-0.0007255614163614,-0.0006964714285714,-0.0006926494993894,-0.0005799965811965,-0.0005551796092796,-0.0004736808302808
-0.0005524779975579,-0.0005703948717948,-0.0004714031746031,0.0005606294749694,-3.950810744810717e-05,-0.0005197582173382,-0.0007194642246642,-0.0006964714285714,-0.0006896248595848,-0.0005799965811965,-0.0005521622710622,-0.0004706634920634
-0.0005433711111111,-0.0005673609279609,-0.0004774857142857,0.0005545688644688,-3.342908424908396e-05,-0.0005227977533577,-0.0007194642246642,-0.0006964714285714,-0.0006896248595848,-0.0005799965811965,-0.0005491449328449,-0.0004646288156288
-0.0005372998534798,-0.0005703948717948,-0.0004866095238095,0.0005515385592185,-2.4310549450549165e-05,-0.0005288768253968,-0.0007225128205128,-0.0006995126984126,-0.0006926494993894,-0.0005830175824175,-0.0005551796092796,-0.0004676461538461
-0.0005372998534798,-0.0005734288156288,-0.0004866095238095,0.0005545688644688,-2.4310549450549165e-05,-0.0005288768253968,-0.0007255614163614,-0.0007055952380952,-0.0006986987789987,-0.0005890595848595,-0.0005581969474969,-0.0004706634920634
-0.0005403354822954,-0.0005643269841269,-0.0004744444444444,0.0005515385592185,-3.342908424908396e-05,-0.0005197582173382,-0.0007225128205128,-0.0007116777777777,-0.000704748058608,-0.0005890595848595,-0.0005612142857142,-0.0004706634920634
-0.0005433711111111,-0.000561293040293,-0.0004714031746031,0.0005515385592185,-3.6468595848595565e-05,-0.0005167186813186,-0.0007194642246642,-0.0007116777777777,-0.0006986987789987,-0.0005830175824175,-0.0005551796092796,-0.0004676461538461
-0.0005403354822954,-0.0005734288156288,-0.0004866095238095,0.0005545688644688,-2.735006105006077e-05,-0.0005288768253968,-0.0007194642246642,-0.0007086365079365,-0.0006956741391941,-0.0005830175824175,-0.0005551796092796,-0.0004706634920634
-0.0005342642246642,-0.0005825306471306,-0.0005018158730158,0.0005575991697191,-1.5192014652014368e-05,-0.0005410349694749,-0.0007194642246642,-0.0007025539682539,-0.0006986987789987,-0.0005830175824175,-0.0005551796092796,-0.0004736808302808
-0.0005342642246642,-0.0005885985347985,-0.0005078984126984,0.0005606294749694,-1.2152503052502767e-05,-0.000547114041514,-0.000713367032967,-0.0006995126984126,-0.0006956741391941,-0.0005799965811965,-0.0005581969474969,-0.0004736808302808
-0.0005403354822954,-0.0005794967032967,-0.000492692063492,0.0005575991697191,-2.4310549450549165e-05,-0.0005349558974358,-0.000713367032967,-0.0007025539682539,-0.0006986987789987,-0.0005860385836385,-0.0005642316239316,-0.0004797155067155
-0.0005464067399267,-0.0005703948717948,-0.0004714031746031,0.0005575991697191,-3.6468595848595565e-05,-0.0005197582173382,-0.000713367032967,-0.0007086365079365,-0.000704748058608,-0.0005920805860805,-0.0005702663003663,-0.0004827328449328
-0.0005464067399267,-0.0005643269841269,-0.0004714031746031,0.0005545688644688,-3.6468595848595565e-05,-0.0005167186813186,-0.000713367032967,-0.0007055952380952,-0.000704748058608,-0.0005951015873015,-0.0005672489621489,-0.0004857501831501
-0.0005312285958485,-0.0005734288156288,-0.0004957333333333,0.0005515385592185,-1.823152625152597e-05,-0.0005349558974358,-0.000713367032967,-0.0007055952380952,-0.000704748058608,-0.0005951015873015,-0.0005732836385836,-0.0004857501831501
-0.0005221217094017,-0.0005885985347985,-0.0005139809523809,0.0005545688644688,-3.03396825396797e-06,-0.0005501535775335,-0.0007103184371184,-0.0007086365079365,-0.000704748058608,-0.0005951015873015,-0.0005763009768009,-0.0004857501831501
-0.0005372998534798,-0.0005916324786324,-0.0005078984126984,0.0005636597802197,-1.5192014652014368e-05,-0.0005501535775335,-0.0007042212454212,-0.0007055952380952,-0.0007017234188034,-0.0005890595848595,-0.0005672489621489,-0.0004736808302808
-0.0005464067399267,-0.0005825306471306,-0.000492692063492,0.0005636597802197,-2.735006105006077e-05,-0.0005379954334554,-0.0007042212454212,-0.0007055952380952,-0.0006986987789987,-0.0005799965811965,-0.0005551796092796,-0.0004646288156288
-0.0005403354822954,-0.0005794967032967,-0.000492692063492,0.0005575991697191,-2.4310549450549165e-05,-0.0005349558974358,-0.000713367032967,-0.0007025539682539,-0.0006986987789987,-0.0005769755799755,-0.0005521622710622,-0.0004646288156288
-0.0005403354822954,-0.0005825306471306,-0.0004987746031746,0.0005606294749694,-2.1271037851037568e-05,-0.0005410349694749,-0.000713367032967,-0.0007055952380952,-0.000704748058608,-0.0005830175824175,-0.0005581969474969,-0.0004706634920634
-0.0005433711111111,-0.0005825306471306,-0.000492692063492,0.0005606294749694,-2.4310549450549165e-05,-0.0005379954334554,-0.0007103184371184,-0.0007116777777777,-0.000704748058608,-0.0005920805860805,-0.0005642316239316,-0.0004766981684981
-0.0005372998534798,-0.0005734288156288,-0.0004866095238095,0.0005545688644688,-2.4310549450549165e-05,-0.0005288768253968,-0.0007072698412698,-0.0007116777777777,-0.0007077726984126,-0.0005920805860805,-0.0005702663003663,-0.0004797155067155
-0.0005372998534798,-0.0005794967032967,-0.000492692063492,0.0005575991697191,-2.1271037851037568e-05,-0.0005349558974358,-0.0007072698412698,-0.0007116777777777,-0.0007077726984126,-0.0005951015873015,-0.0005702663003663,-0.0004827328449328
-0.0005403354822954,-0.0005885985347985,-0.0005048571428571,0.0005636597802197,-1.823152625152597e-05,-0.000547114041514,-0.0007072698412698,-0.0007086365079365,-0.0007077726984126,-0.0005951015873015,-0.0005702663003663,-0.0004827328449328
-0.0005372998534798,-0.0005977003663003,-0.0005139809523809,0.00056669008547,-1.2152503052502767e-05,-0.0005562326495726,-0.0007103184371184,-0.0007086365079365,-0.0007077726984126,-0.0005951015873015,-0.0005702663003663,-0.0004797155067155
-0.0005464067399267,-0.0005946664224664,-0.0005048571428571,0.0005697203907203,-2.1271037851037568e-05,-0.0005501535775335,-0.0007103184371184,-0.0007086365079365,-0.0007077726984126,-0.0005890595848595,-0.0005612142857142,-0.0004736808302808
-0.0005494423687423,-0.0005855645909645,-0.0004957333333333,0.00056669008547,-2.735006105006077e-05,-0.0005410349694749,-0.0007072698412698,-0.000714719047619,-0.000704748058608,-0.0005860385836385,-0.0005581969474969,-0.0004706634920634
-0.0005312285958485,-0.0005855645909645,-0.0005048571428571,0.0005575991697191,-1.2152503052502767e-05,-0.0005440745054945,-0.0007072698412698,-0.0007177603174603,-0.0007077726984126,-0.0005920805860805,-0.0005642316239316,-0.0004766981684981
-0.0005281929670329,-0.0005825306471306,-0.0005078984126984,0.0005545688644688,-9.11299145299117e-06,-0.0005440745054945,-0.0007072698412698,-0.0007086365079365,-0.0007077726984126,-0.0005951015873015,-0.0005642316239316,-0.0004797155067155
-0.0005433711111111,-0.0005916324786324,-0.0005048571428571,0.00056669008547,-1.823152625152597e-05,-0.000547114041514,-0.0007042212454212,-0.0007086365079365,-0.0007077726984126,-0.0005890595848595,-0.0005642316239316,-0.0004766981684981
-0.0005403354822954,-0.0005946664224664,-0.0005109396825396,0.00056669008547,-1.5192014652014368e-05,-0.0005531931135531,-0.0007072698412698,-0.0007116777777777,-0.0007138219780219,-0.0005920805860805,-0.0005702663003663,-0.0004827328449328
-0.0005403354822954,-0.0005855645909645,-0.0004987746031746,0.0005606294749694,-2.1271037851037568e-05,-0.0005410349694749,-0.0007042212454212,-0.0007116777777777,-0.0007107973382173,-0.0005920805860805,-0.0005702663003663,-0.0004797155067155
-0.0005372998534798,-0.0005885985347985,-0.0005018158730158,0.0005606294749694,-1.823152625152597e-05,-0.0005440745054945,-0.0007042212454212,-0.0007086365079365,-0.0007107973382173,-0.0005920805860805,-0.0005672489621489,-0.0004797155067155
-0.0005372998534798,-0.0005885985347985,-0.0005048571428571,0.0005606294749694,-1.5192014652014368e-05,-0.000547114041514,-0.0007011726495726,-0.0007086365079365,-0.0007107973382173,-0.0005920805860805,-0.0005642316239316,-0.0004736808302808
-0.0005342642246642,-0.0005825306471306,-0.0005018158730158,0.0005575991697191,-1.5192014652014368e-05,-0.0005410349694749,-0.0007072698412698,-0.0007086365079365,-0.0007107973382173,-0.0005920805860805,-0.0005672489621489,-0.0004736808302808
-0.0005403354822954,-0.0005885985347985,-0.0005018158730158,0.0005636597802197,-1.823152625152597e-05,-0.0005440745054945,-0.0007072698412698,-0.000714719047619,-0.0007138219780219,-0.0005920805860805,-0.0005672489621489,-0.0004797155067155
-0.0005372998534798,-0.0005885985347985,-0.0005048571428571,0.0005606294749694,-1.5192014652014368e-05,-0.000547114041514,-0.0007011726495726,-0.0007116777777777,-0.0007138219780219,-0.0005951015873015,-0.0005702663003663,-0.0004827328449328
-0.0005433711111111,-0.0005825306471306,-0.0004957333333333,0.0005606294749694,-2.4310549450549165e-05,-0.0005379954334554,-0.0006950754578754,-0.0007086365079365,-0.0007138219780219,-0.0005951015873015,-0.0005672489621489,-0.0004766981684981
-0.0005494423687423,-0.0005764627594627,-0.0004774857142857,0.0005606294749694,-3.6468595848595565e-05,-0.0005258372893772,-0.0006950754578754,-0.0007055952380952,-0.0007077726984126,-0.0005890595848595,-0.0005612142857142,-0.0004706634920634
-0.0005433711111111,-0.0005703948717948,-0.0004774857142857,0.0005545688644688,-3.342908424908396e-05,-0.0005227977533577,-0.0006950754578754,-0.0007055952380952,-0.0007077726984126,-0.0005830175824175,-0.0005581969474969,-0.0004736808302808
-0.0005433711111111,-0.0005673609279609,-0.0004744444444444,0.0005545688644688,-3.342908424908396e-05,-0.0005197582173382,-0.0006920268620268,-0.0007025539682539,-0.0007017234188034,-0.0005769755799755,-0.0005551796092796,-0.0004706634920634
-0.0005312285958485,-0.0005643269841269,-0.0004866095238095,0.0005454779487179,-2.1271037851037568e-05,-0.0005258372893772,-0.0006889782661782,-0.0007025539682539,-0.0007017234188034,-0.0005769755799755,-0.0005551796092796,-0.0004706634920634
-0.0005312285958485,-0.000561293040293,-0.0004835682539682,0.0005454779487179,-2.4310549450549165e-05,-0.0005227977533577,-0.0006859296703296,-0.0006964714285714,-0.0006956741391941,-0.0005769755799755,-0.0005521622710622,-0.0004676461538461
-0.0005312285958485,-0.0005461233211233,-0.0004653206349206,0.000536387032967,-3.342908424908396e-05,-0.0005045605372405,-0.000682881074481,-0.0006903888888888,-0.0006866002197802,-0.0005618705738705,-0.0005431102564102,-0.0004585941391941
-0.000519086080586,-0.0005218517704517,-0.0004561968253968,0.0005182052014652,-3.0389572649572364e-05,-0.0004893628571428,-0.0006767838827838,-0.000681265079365,-0.0006745016605616,-0.0005528075702075,-0.0005310409035409,-0.0004495421245421
-0.0005039079365079,-0.0004945462759462,-0.000447073015873,0.000496993064713,-2.735006105006077e-05,-0.0004711256410256,-0.000667638095238,-0.0006751825396825,-0.0006654277411477,-0.0005467655677655,-0.0005250062271062,-0.0004465247863247
-0.0005069435653235,-0.0004824105006105,-0.0004318666666666,0.0004939627594627,-3.6468595848595565e-05,-0.0004559279609279,-0.000667638095238,-0.0006660587301587,-0.0006563538217338,-0.0005407235653235,-0.0005219888888888,-0.0004435074481074
-0.0005039079365079,-0.0004763426129426,-0.0004257841269841,0.0004879021489621,-3.950810744810717e-05,-0.0004498488888888,-0.0006767838827838,-0.0006538936507936,-0.0006442552625152,-0.0005316605616605,-0.0005129368742368,-0.0004344554334554
-0.0004978366788766,-0.0004672407814407,-0.0004288253968253,0.0004818415384615,-3.342908424908396e-05,-0.0004468093528693,-0.0006859296703296,-0.0006447698412698,-0.0006382059829059,-0.0005225975579975,-0.0005038848595848,-0.0004254034188034
-0.0005008723076923,-0.0004672407814407,-0.0004227428571428,0.0004818415384615,-3.950810744810717e-05,-0.0004437698168498,-0.000698124053724,-0.0006447698412698,-0.0006321567032967,-0.0005165555555555,-0.0004978501831501,-0.0004193687423687
-0.0005099791941391,-0.0004854444444444,-0.0004288253968253,0.000496993064713,-3.950810744810717e-05,-0.0004559279609279,-0.0007164156288156,-0.0006660587301587,-0.0006442552625152,-0.0005256185592185,-0.0005038848595848,-0.000422386080586
-0.0005099791941391,-0.0004945462759462,-0.0004379492063492,0.0005000233699633,-3.6468595848595565e-05,-0.0004650465689865,-0.0007255614163614,-0.0006843063492063,-0.0006624031013431,-0.0005407235653235,-0.0005189715506715,-0.0004344554334554
-0.0005039079365079,-0.0004945462759462,-0.0004440317460317,0.000496993064713,-3.0389572649572364e-05,-0.0004680861050061,-0.0007225128205128,-0.0006934301587301,-0.000671477020757,-0.0005497865689865,-0.0005280235653235,-0.0004435074481074
-0.0005008723076923,-0.0005218517704517,-0.0004683619047619,0.0005091142857142,-1.5192014652014368e-05,-0.0004954419291819,-0.0007194642246642,-0.0006995126984126,-0.0006835755799755,-0.0005588495726495,-0.0005370755799755,-0.0004495421245421
-0.0005130148229548,-0.0005400554334554,-0.0004805269841269,0.0005242658119658,-1.5192014652014368e-05,-0.0005106396092796,-0.0007194642246642,-0.0006995126984126,-0.0006926494993894,-0.0005588495726495,-0.0005370755799755,-0.0004525594627594
-0.000519086080586,-0.0005370214896214,-0.0004714031746031,0.0005272961172161,-2.4310549450549165e-05,-0.0005045605372405,-0.0007194642246642,-0.0006995126984126,-0.0006896248595848,-0.0005558285714285,-0.0005310409035409,-0.0004465247863247
-0.0005069435653235,-0.0005309536019536,-0.0004774857142857,0.0005182052014652,-1.5192014652014368e-05,-0.0005045605372405,-0.00072861001221,-0.0007055952380952,-0.0006986987789987,-0.0005618705738705,-0.0005340582417582,-0.0004465247863247
-0.0005039079365079,-0.0005400554334554,-0.0004896507936507,0.0005212355067155,-6.07347985347957e-06,-0.0005136791452991,-0.00072861001221,-0.000714719047619,-0.0007077726984126,-0.0005739545787545,-0.0005431102564102,-0.0004525594627594
-0.0005069435653235,-0.0005643269841269,-0.0005078984126984,0.0005333567277167,5.543345543628675e-09,-0.0005349558974358,-0.0007225128205128,-0.0007177603174603,-0.0007198712576312,-0.0005890595848595,-0.0005581969474969,-0.0004706634920634
-0.0005130148229548,-0.0005794967032967,-0.0005139809523809,0.0005454779487179,5.543345543628675e-09,-0.000547114041514,-0.0007194642246642,-0.0007177603174603,-0.0007228958974358,-0.0005920805860805,-0.0005642316239316,-0.0004766981684981
-0.0005403354822954,-0.0005794967032967,-0.000492692063492,0.0005575991697191,-2.4310549450549165e-05,-0.0005349558974358,-0.000713367032967,-0.0007208015873015,-0.0007228958974358,-0.0005951015873015,-0.0005642316239316,-0.0004766981684981
-0.0005464067399267,-0.0005703948717948,-0.0004774857142857,0.0005575991697191,-3.342908424908396e-05,-0.0005227977533577,-0.0007072698412698,-0.0007238428571428,-0.0007228958974358,-0.0005920805860805,-0.0005642316239316,-0.0004766981684981
-0.0005494423687423,-0.0005703948717948,-0.0004714031746031,0.0005575991697191,-3.950810744810717e-05,-0.0005197582173382,-0.0007072698412698,-0.0007299253968253,-0.0007228958974358,-0.0005920805860805,-0.0005642316239316,-0.0004797155067155
-0.0005524779975579,-0.0005825306471306,-0.0004805269841269,0.00056669008547,-3.6468595848595565e-05,-0.0005319163614163,-0.0007072698412698,-0.0007360079365079,-0.0007289451770451,-0.0005981225885225,-0.0005732836385836,-0.0004857501831501
-0.0005524779975579,-0.0005977003663003,-0.0004957333333333,0.0005727506959706,-2.735006105006077e-05,-0.000547114041514,-0.0007072698412698,-0.0007420904761904,-0.0007349944566544,-0.0006071855921855,-0.0005763009768009,-0.0004887675213675
-0.0005585492551892,-0.0006037682539682,-0.0004957333333333,0.0005788113064713,-3.0389572649572364e-05,-0.0005501535775335,-0.0007072698412698,-0.0007420904761904,-0.000738019096459,-0.0006071855921855,-0.0005793183150183,-0.0004917848595848
-0.0005646205128205,-0.0006007343101343,-0.000492692063492,0.0005818416117216,-3.6468595848595565e-05,-0.000547114041514,-0.000698124053724,-0.0007390492063492,-0.0007349944566544,-0.0006071855921855,-0.0005763009768009,-0.0004887675213675
-0.0005615848840048,-0.0006068021978021,-0.0004957333333333,0.0005818416117216,-3.342908424908396e-05,-0.0005501535775335,-0.000698124053724,-0.0007360079365079,-0.0007349944566544,-0.0006041645909645,-0.0005763009768009,-0.0004917848595848
-0.0005615848840048,-0.0006068021978021,-0.0004957333333333,0.0005818416117216,-3.342908424908396e-05,-0.0005501535775335,-0.0007042212454212,-0.0007329666666666,-0.0007349944566544,-0.0006041645909645,-0.0005763009768009,-0.0004948021978021
-0.0005615848840048,-0.0005977003663003,-0.0004866095238095,0.0005788113064713,-3.6468595848595565e-05,-0.0005410349694749,-0.0007072698412698,-0.0007299253968253,-0.0007289451770451,-0.0005981225885225,-0.0005732836385836,-0.0004917848595848
-0.0005585492551892,-0.0005977003663003,-0.0004896507936507,0.000575781001221,-3.342908424908396e-05,-0.0005440745054945,-0.0007072698412698,-0.0007329666666666,-0.0007319698168498,-0.0006011435897435,-0.0005763009768009,-0.0004948021978021
-0.0005615848840048,-0.0005916324786324,-0.0004835682539682,0.000575781001221,-3.950810744810717e-05,-0.0005379954334554,-0.0007042212454212,-0.0007329666666666,-0.0007289451770451,-0.0006041645909645,-0.0005793183150183,-0.0004948021978021
-0.0005585492551892,-0.0005855645909645,-0.0004835682539682,0.0005697203907203,-3.6468595848595565e-05,-0.0005349558974358,-0.0007042212454212,-0.0007268841269841,-0.0007198712576312,-0.0005951015873015,-0.0005702663003663,-0.0004917848595848
-0.0005494423687423,-0.0005855645909645,-0.0004866095238095,0.00056669008547,-3.0389572649572364e-05,-0.0005349558974358,-0.0007011726495726,-0.0007268841269841,-0.0007168466178266,-0.0005890595848595,-0.0005672489621489,-0.0004827328449328
-0.0005524779975579,-0.0005855645909645,-0.0004866095238095,0.00056669008547,-3.342908424908396e-05,-0.0005349558974358,-0.0007042212454212,-0.0007268841269841,-0.0007198712576312,-0.0005890595848595,-0.0005642316239316,-0.0004766981684981
-0.0005555136263736,-0.0005825306471306,-0.0004805269841269,0.00056669008547,-3.6468595848595565e-05,-0.0005319163614163,-0.0007103184371184,-0.0007268841269841,-0.0007198712576312,-0.0005860385836385,-0.0005612142857142,-0.0004736808302808
-0.0005555136263736,-0.0005916324786324,-0.000492692063492,0.0005727506959706,-3.0389572649572364e-05,-0.0005410349694749,-0.0007042212454212,-0.0007116777777777,-0.000704748058608,-0.0005830175824175,-0.0005672489621489,-0.0004857501831501
-0.0005494423687423,-0.0005734288156288,-0.0004774857142857,0.0005606294749694,-3.6468595848595565e-05,-0.0005258372893772,-0.0006950754578754,-0.0006690999999999,-0.0006563538217338,-0.0005679125763125,-0.0005732836385836,-0.0005038542124542
-0.0005464067399267,-0.0005006141636141,-0.0004075365079365,0.0005212355067155,-6.990322344322315e-05,-0.0004528884249084,-0.000698124053724,-0.0006265222222222,-0.0005867871062271,-0.0005286395604395,-0.0005521622710622,-0.0005008368742368
-0.0005069435653235,-0.0003549848595848,-0.0003041333333333,0.0004303263492063,-0.0001002983394383,-0.0003282674481074,-0.00072861001221,-0.0005292015873015,-0.0004658015140415,-0.0004259255189255,-0.0004767288156288,-0.0004525594627594
-0.0004006965567765,-0.000130473015873,-0.000188565079365,0.0002636595604395,-0.0001063773626373,-0.0001580534310134,-0.0007895819291819,-0.0003953857142857,-0.000260126007326,-0.0001993504273504,-0.0003077578754578,-0.0003469526251526
-0.0002610576312576,0.0002123626373626,1.5200000000000092e-05,2.426544566544569e-05,-0.0001367724786324,0.0001124652747252,-0.0009359145299145,-0.0004470873015873,-3.6302661782661866e-05,0.0001329597069597,-9.041391941392096e-06,-0.0001116002442002
-0.0001244543345543,0.0006280129426129,0.0002919555555555,-0.0002514923321123,-0.0002066812454212,0.0004589723809523,-0.0011919965811965,-0.0007390492063492,0.0001240032478632,0.0005196478632478,0.0003892472527472,0.0002353936507936
6.446886446610733e-09,0.0009951201465201,0.0005291746031746,-0.000496947057387,-0.0002644319658119,0.0007629259829059,-0.0015273421245421,-0.0011252904761904,0.0001300525274725,0.0008579999999999,0.0007724492063492,0.0005914395604395
8.803968253968226e-05,0.0012226659340659,0.000669073015873,-0.0006545229304029,-0.000288748058608,0.0009452981440781,-0.0018382989010989,-0.001481119047619,6.042295482295402e-06,0.001024155067155,0.0010198709401709,0.0008660173382173
9.107531135531109e-05,0.0010588329670329,0.0005048444444444,-0.0005727046886446,-0.0002066812454212,0.0007811631990231,-0.0019358539682539,-0.0016635952380952,-0.0002722245665445,0.0007885169719169,0.000905212087912,0.0008780866910866
-0.0001001693040293,0.0004095689865689,4.865396825396834e-05,-0.0001545225641025,-7.294273504273476e-05,0.0002279676434676,-0.0017407438339438,-0.0017487507936507,-0.0007652408547008,0.0001359807081807,0.0004073512820512,0.0005733355311355
-0.0003612333821733,-5.159047619047599e-05,-0.0001459873015873,0.0002060837606837,-0.0001063773626373,-9.726271062271064e-05,-0.0015181963369963,-0.0018947317460317,-0.0012401093040293,-0.0004500935286935,-2.412808302808318e-05,0.0002987577533577
-0.0005221217094017,-0.0002700344322344,-0.0001976888888888,0.0003939626862026,-0.0001610885714285,-0.0002340418315018,-0.0013596693528693,-0.0018947317460317,-0.0014336862515262,-0.0007521936507936,-0.0002896538461538,9.056141636141577e-05
-0.0005828342857142,-0.000455105006105,-0.0003284634920634,0.0005182052014652,-0.0001276539438339,-0.0003920977045177,-0.0012285797313797,-0.0016757603174603,-0.0013610948962148,-0.0008156346764346,-0.000443538095238,-9.953089133089192e-05
-0.0005980124297924,-0.0005552251526251,-0.0004105777777777,0.000575781001221,-9.421931623931596e-05,-0.0004832837851037,-0.0011310246642246,-0.0014446238095238,-0.0012189368253968,-0.0007824036630036,-0.0005159542124542,-0.0002383284493284
-0.0005919411721611,-0.0005916324786324,-0.0004561968253968,0.0005909325274725,-6.686371184371155e-05,-0.0005227977533577,-0.0010273724053724,-0.0012378174603174,-0.0010888773137973,-0.0007431306471306,-0.0005491449328449,-0.0003288485958485
-0.000576763028083,-0.0005977003663003,-0.0004774857142857,0.0005848719169719,-4.862664224664196e-05,-0.0005379954334554,-0.0008962827838827,-0.0010279698412698,-0.0009618424420024,-0.0006917736263736,-0.0005612142857142,-0.000386178021978
-0.0005524779975579,-0.0005734288156288,-0.0004744444444444,0.0005606294749694,-3.950810744810717e-05,-0.0005227977533577,-0.0007865333333333,-0.0008424523809523,-0.0008469061294261,-0.0006343746031746,-0.0005521622710622,-0.0004193687423687
-0.0005342642246642,-0.0005339875457875,-0.0004531555555555,0.0005333567277167,-3.950810744810717e-05,-0.0004924023931623,-0.0007225128205128,-0.0007208015873015,-0.0007591915750915,-0.0005890595848595,-0.0005400929181929,-0.000431438095238
-0.0005372998534798,-0.0005127499389499,-0.0004318666666666,0.0005242658119658,-5.166615384615356e-05,-0.0004711256410256,-0.0006920268620268,-0.0006630174603174,-0.0007077726984126,-0.0005648915750915,-0.0005280235653235,-0.000431438095238
-0.0005494423687423,-0.0005157838827838,-0.0004227428571428,0.0005303264224664,-6.382420024419996e-05,-0.0004680861050061,-0.0006767838827838,-0.000635646031746,-0.0006835755799755,-0.0005588495726495,-0.0005310409035409,-0.0004404901098901
-0.0005464067399267,-0.0005248857142857,-0.0004318666666666,0.0005333567277167,-5.774517704517676e-05,-0.0004772047130647,-0.000667638095238,-0.0006173984126984,-0.0006805509401709,-0.0005618705738705,-0.0005400929181929,-0.0004495421245421
-0.0005251573382173,-0.0005339875457875,-0.000459238095238,0.0005272961172161,-3.342908424908396e-05,-0.0004954419291819,-0.0006645894993894,-0.0006052333333333,-0.0006805509401709,-0.0005709335775335,-0.0005551796092796,-0.0004646288156288
-0.0005221217094017,-0.0005339875457875,-0.0004653206349206,0.0005272961172161,-2.735006105006077e-05,-0.0004984814652014,-0.0006584923076923,-0.0005930682539682,-0.000671477020757,-0.0005679125763125,-0.0005551796092796,-0.0004706634920634
-0.0005433711111111,-0.0005339875457875,-0.000447073015873,0.000536387032967,-4.862664224664196e-05,-0.0004893628571428,-0.0006493465201465,-0.0005778619047619,-0.0006563538217338,-0.0005558285714285,-0.0005491449328449,-0.0004706634920634
-0.0005494423687423,-0.0005400554334554,-0.000447073015873,0.0005424476434676,-5.166615384615356e-05,-0.0004924023931623,-0.0006432493284493,-0.0005656968253968,-0.0006503045421245,-0.0005558285714285,-0.0005491449328449,-0.0004706634920634
-0.0005464067399267,-0.0005430893772893,-0.0004501142857142,0.0005424476434676,-4.862664224664196e-05,-0.0004954419291819,-0.0006402007326007,-0.000556573015873,-0.0006412306227106,-0.0005558285714285,-0.0005491449328449,-0.0004706634920634
-0.0005494423687423,-0.0005370214896214,-0.0004409904761904,0.0005424476434676,-5.470566544566516e-05,-0.0004893628571428,-0.0006432493284493,-0.0005504904761904,-0.0006382059829059,-0.0005558285714285,-0.0005491449328449,-0.0004706634920634
-0.0005464067399267,-0.0005400554334554,-0.0004440317460317,0.0005424476434676,-5.166615384615356e-05,-0.0004924023931623,-0.0006432493284493,-0.0005474492063492,-0.0006382059829059,-0.0005588495726495,-0.0005521622710622,-0.0004766981684981
-0.0005494423687423,-0.0005370214896214,-0.0004409904761904,0.0005424476434676,-5.470566544566516e-05,-0.0004893628571428,-0.0006402007326007,-0.0005444079365079,-0.0006382059829059,-0.0005618705738705,-0.0005551796092796,-0.0004797155067155
-0.0005494423687423,-0.0005339875457875,-0.0004379492063492,0.0005394173382173,-5.470566544566516e-05,-0.0004863233211233,-0.0006371521367521,-0.0005413666666666,-0.0006351813431013,-0.0005558285714285,-0.0005521622710622,-0.0004736808302808
-0.0005372998534798,-0.0005309536019536,-0.0004501142857142,0.0005333567277167,-4.254761904761877e-05,-0.0004893628571428,-0.0006402007326007,-0.0005322428571428,-0.0006321567032967,-0.0005528075702075,-0.0005491449328449,-0.0004736808302808
-0.0005281929670329,-0.0005370214896214,-0.000459238095238,0.0005303264224664,-3.342908424908396e-05,-0.0004984814652014,-0.0006402007326007,-0.0005292015873015,-0.0006321567032967,-0.0005528075702075,-0.0005491449328449,-0.0004797155067155
-0.0005312285958485,-0.0005339875457875,-0.0004561968253968,0.0005303264224664,-3.6468595848595565e-05,-0.0004954419291819,-0.0006402007326007,-0.0005200777777777,-0.0006261074236874,-0.0005497865689865,-0.0005491449328449,-0.0004766981684981
-0.0005342642246642,-0.0005309536019536,-0.0004501142857142,0.0005303264224664,-4.254761904761877e-05,-0.0004893628571428,-0.0006341035409035,-0.0005139952380952,-0.0006230827838827,-0.0005437445665445,-0.0005461275946275,-0.0004736808302808
-0.0005312285958485,-0.0005248857142857,-0.0004501142857142,0.0005272961172161,-3.950810744810717e-05,-0.0004863233211233,-0.0006310549450549,-0.0005109539682539,-0.0006170335042735,-0.0005467655677655,-0.0005431102564102,-0.0004706634920634
-0.0005251573382173,-0.0005309536019536,-0.000459238095238,0.0005272961172161,-3.342908424908396e-05,-0.0004954419291819,-0.0006310549450549,-0.0005048714285714,-0.0006140088644688,-0.0005437445665445,-0.0005461275946275,-0.0004706634920634
-0.0005342642246642,-0.0005309536019536,-0.000447073015873,0.0005303264224664,-4.254761904761877e-05,-0.0004893628571428,-0.0006310549450549,-0.0004957476190476,-0.0006109842246642,-0.0005407235653235,-0.0005431102564102,-0.0004676461538461
-0.0005433711111111,-0.0005218517704517,-0.0004318666666666,0.0005303264224664,-5.470566544566516e-05,-0.0004772047130647,-0.0006280063492063,-0.0004866238095238,-0.0006049349450549,-0.0005407235653235,-0.0005400929181929,-0.0004706634920634
-0.0005342642246642,-0.0005097159951159,-0.0004288253968253,0.0005212355067155,-5.166615384615356e-05,-0.0004680861050061,-0.0006280063492063,-0.000489665079365,-0.0006109842246642,-0.0005467655677655,-0.0005461275946275,-0.0004766981684981
-0.0005221217094017,-0.0005036481074481,-0.0004349079365079,0.0005121445909645,-4.254761904761877e-05,-0.0004680861050061,-0.0006280063492063,-0.000489665079365,-0.0006140088644688,-0.0005497865689865,-0.0005551796092796,-0.0004857501831501
-0.0005221217094017,-0.0005127499389499,-0.0004409904761904,0.0005151748962148,-3.950810744810717e-05,-0.0004772047130647,-0.0006249577533577,-0.0004805412698412,-0.0006049349450549,-0.0005467655677655,-0.0005581969474969,-0.0004917848595848
-0.0005251573382173,-0.0005309536019536,-0.0004561968253968,0.0005272961172161,-3.342908424908396e-05,-0.0004924023931623,-0.0006188605616605,-0.0004653349206349,-0.000595861025641,-0.0005467655677655,-0.0005581969474969,-0.0004887675213675
-0.0005281929670329,-0.0005370214896214,-0.0004622793650793,0.0005303264224664,-3.342908424908396e-05,-0.0004984814652014,-0.0006158119658119,-0.0004592523809523,-0.0005928363858363,-0.0005407235653235,-0.0005581969474969,-0.0004857501831501
-0.0005281929670329,-0.0005339875457875,-0.0004622793650793,0.0005303264224664,-3.342908424908396e-05,-0.0004984814652014,-0.0006127633699633,-0.0004531698412698,-0.0005867871062271,-0.0005346815628815,-0.0005491449328449,-0.0004797155067155
-0.0005251573382173,-0.0005370214896214,-0.0004683619047619,0.0005303264224664,-2.735006105006077e-05,-0.000501521001221,-0.0006097147741147,-0.0004470873015873,-0.0005837624664224,-0.0005377025641025,-0.0005491449328449,-0.0004766981684981
-0.0005221217094017,-0.0005339875457875,-0.0004653206349206,0.0005272961172161,-2.735006105006077e-05,-0.0004984814652014,-0.0006127633699633,-0.0004410047619047,-0.0005867871062271,-0.0005377025641025,-0.0005431102564102,-0.0004736808302808
-0.0005160504517704,-0.0005279196581196,-0.0004622793650793,0.0005212355067155,-2.735006105006077e-05,-0.0004954419291819,-0.0006127633699633,-0.0004318809523809,-0.0005807378266178,-0.0005346815628815,-0.0005400929181929,-0.0004736808302808
-0.0005160504517704,-0.0005279196581196,-0.0004622793650793,0.0005212355067155,-2.735006105006077e-05,-0.0004954419291819,-0.0006097147741147,-0.0004197158730158,-0.0005777131868131,-0.0005346815628815,-0.0005431102564102,-0.0004797155067155
-0.0005312285958485,-0.0005279196581196,-0.0004501142857142,0.0005272961172161,-3.950810744810717e-05,-0.0004893628571428,-0.0006005689865689,-0.0004045095238095,-0.0005686392673992,-0.0005346815628815,-0.0005461275946275,-0.0004797155067155
-0.0005251573382173,-0.0005188178266178,-0.0004440317460317,0.0005212355067155,-3.950810744810717e-05,-0.0004802442490842,-0.0006005689865689,-0.0004014682539682,-0.0005686392673992,-0.0005316605616605,-0.0005461275946275,-0.0004827328449328
-0.0005130148229548,-0.0005097159951159,-0.0004531555555555,0.0005091142857142,-3.0389572649572364e-05,-0.0004802442490842,-0.0006036175824175,-0.0003953857142857,-0.0005656146275946,-0.0005316605616605,-0.0005491449328449,-0.0004857501831501
-0.0005160504517704,-0.0005188178266178,-0.000459238095238,0.0005151748962148,-2.735006105006077e-05,-0.0004893628571428,-0.0006005689865689,-0.0003801793650793,-0.0005565407081807,-0.0005286395604395,-0.0005491449328449,-0.0004857501831501
-0.000519086080586,-0.0005279196581196,-0.0004622793650793,0.0005212355067155,-2.735006105006077e-05,-0.0004954419291819,-0.0005944717948717,-0.000364973015873,-0.0005474667887667,-0.0005256185592185,-0.0005461275946275,-0.0004797155067155
-0.0005160504517704,-0.0005218517704517,-0.0004622793650793,0.0005182052014652,-2.735006105006077e-05,-0.0004924023931623,-0.0005914231990231,-0.0003497666666666,-0.0005383928693528,-0.0005195765567765,-0.0005400929181929,-0.0004736808302808
-0.0005099791941391,-0.0005157838827838,-0.000459238095238,0.0005121445909645,-2.4310549450549165e-05,-0.0004863233211233,-0.0005883746031746,-0.0003345603174603,-0.0005323435897435,-0.0005165555555555,-0.0005370755799755,-0.0004676461538461
-0.0005039079365079,-0.0005036481074481,-0.0004531555555555,0.0005030536752136,-2.4310549450549165e-05,-0.0004772047130647,-0.0005914231990231,-0.0003193539682539,-0.0005293189499389,-0.0005135345543345,-0.0005340582417582,-0.0004676461538461
-0.0005039079365079,-0.0004884783882783,-0.0004379492063492,0.0004939627594627,-3.342908424908396e-05,-0.000462007032967,-0.0005883746031746,-0.0003011063492063,-0.000520245030525,-0.0005044715506715,-0.0005250062271062,-0.0004616114774114
-0.0005039079365079,-0.0004915123321123,-0.0004409904761904,0.000496993064713,-3.0389572649572364e-05,-0.0004650465689865,-0.0005792288156288,-0.0002798174603174,-0.0005081464713064,-0.0005014505494505,-0.0005219888888888,-0.0004616114774114
-0.0005039079365079,-0.0005006141636141,-0.0004501142857142,0.0005000233699633,-2.735006105006077e-05,-0.0004741651770451,-0.0005670344322344,-0.0002554873015873,-0.0004960479120879,-0.0004954085470085,-0.0005219888888888,-0.0004585941391941
-0.0004887297924297,-0.0004884783882783,-0.0004531555555555,0.0004879021489621,-1.823152625152597e-05,-0.0004711256410256,-0.0005670344322344,-0.0002402809523809,-0.0004930232722832,-0.0004923875457875,-0.0005189715506715,-0.0004585941391941
-0.000470516019536,-0.0004702747252747,-0.0004501142857142,0.0004697203174603,-9.11299145299117e-06,-0.0004589674969474,-0.000570083028083,-0.000218992063492,-0.0004899986324786,-0.0004923875457875,-0.0005189715506715,-0.0004555768009768
-0.0004583735042735,-0.0004581389499389,-0.0004531555555555,0.000457599096459,-3.03396825396797e-06,-0.0004559279609279,-0.0005731316239316,-0.0001977031746031,-0.0004869739926739,-0.0004923875457875,-0.0005189715506715,-0.0004525594627594
-0.0004644447619047,-0.0004490371184371,-0.0004379492063492,0.0004545687912087,-1.2152503052502767e-05,-0.0004437698168498,-0.0005670344322344,-0.0001764142857142,-0.0004748754334554,-0.0004863455433455,-0.0005129368742368,-0.0004465247863247
-0.0004674803907203,-0.0004369013431013,-0.0004166603174603,0.0004515384859584,-2.4310549450549165e-05,-0.0004255326007326,-0.00055484004884,-0.0001490428571428,-0.0004537029548229,-0.0004682195360195,-0.0004978501831501,-0.0004374727716727
-0.000470516019536,-0.0004277995115995,-0.0004075365079365,0.0004485081807081,-3.0389572649572364e-05,-0.0004164139926739,-0.0005456942612942,-0.0001216714285714,-0.0004385797557997,-0.0004531145299145,-0.0004827634920634,-0.0004254034188034
-0.0004644447619047,-0.0004156637362637,-0.0004075365079365,0.0004394172649572,-2.735006105006077e-05,-0.0004103349206349,-0.0005426456654456,-0.0001003825396825,-0.0004295058363858,-0.0004470725274725,-0.0004737114774114,-0.000413334065934
-0.0004523022466422,-0.00039746007326,-0.0003984126984126,0.0004242657387057,-2.735006105006077e-05,-0.0003981767765567,-0.0005487428571428,-8.213492063492033e-05,-0.0004264811965811,-0.0004470725274725,-0.0004706941391941,-0.0004103167277167
-0.0004431953601953,-0.0003701545787545,-0.000380165079365,0.0004060839072039,-3.0389572649572364e-05,-0.0003738604884004,-0.0005517914529914,-6.692857142857113e-05,-0.0004204319169719,-0.0004440515262515,-0.0004646594627594,-0.0004012647130647
-0.0004431953601953,-0.0003519509157509,-0.0003619174603174,0.0003969929914529,-3.950810744810717e-05,-0.0003556232722832,-0.0005487428571428,-5.476349206349176e-05,-0.0004083333577533,-0.0004289465201465,-0.0004525901098901,-0.0003891953601953
-0.0004310528449328,-0.000342849084249,-0.0003619174603174,0.0003848717704517,-3.342908424908396e-05,-0.0003525837362637,-0.0005456942612942,-3.955714285714255e-05,-0.0003992594383394,-0.0004168625152625,-0.0004405207570207,-0.000377126007326
-0.0004158747008547,-0.0003337472527472,-0.0003619174603174,0.0003727505494505,-2.735006105006077e-05,-0.0003465046642246,-0.0005487428571428,-2.130952380952351e-05,-0.0003901855189255,-0.0004047785103785,-0.000425434065934,-0.0003620393162393
-0.0004219459584859,-0.0003064417582417,-0.0003375873015873,0.0003636596336996,-4.254761904761877e-05,-0.0003221883760683,-0.0005517914529914,-1.5226984126983825e-05,-0.0003841362393162,-0.0003957155067155,-0.0004103473748473,-0.0003439352869352
-0.0004280172161172,-0.000288238095238,-0.0003132571428571,0.000357599023199,-5.774517704517676e-05,-0.0003009116239316,-0.0005578886446886,-1.5226984126983825e-05,-0.0003750623199023,-0.0003866525030525,-0.000398278021978,-0.0003288485958485
-0.0004158747008547,-0.0002761023199023,-0.0003162984126984,0.0003454778021978,-4.862664224664196e-05,-0.0002948325518925,-0.0005639858363858,-1.5226984126983825e-05,-0.000369013040293,-0.0003806105006105,-0.000389226007326,-0.0003167792429792
-0.0003976609279609,-0.0002548647130647,-0.0003102158730158,0.0003242656654456,-4.254761904761877e-05,-0.0002826744078144,-0.000570083028083,-2.130952380952351e-05,-0.0003720376800976,-0.0003745684981684,-0.0003801739926739,-0.0003016925518925
-0.0004037321855921,-0.0002336271062271,-0.0002858857142857,0.000318205054945,-5.774517704517676e-05,-0.0002583581196581,-0.0005792288156288,-3.3474603174602874e-05,-0.000369013040293,-0.0003655054945054,-0.0003650873015873,-0.0002805711843711
-0.0004098034432234,-0.0002214913308913,-0.0002645968253968,0.0003151747496947,-7.294273504273476e-05,-0.0002431604395604,-0.000585326007326,-5.78047619047616e-05,-0.0003750623199023,-0.0003655054945054,-0.0003530179487179,-0.0002715191697191
-0.000412839072039,-0.0002123894993894,-0.0002524317460317,0.0003121444444444,-7.902175824175796e-05,-0.0002310022954822,-0.0005975203907203,-8.821746031746001e-05,-0.0003871608791208,-0.0003685264957264,-0.0003530179487179,-0.0002654844932844
-0.0004098034432234,-0.0002063216117216,-0.0002524317460317,0.0003060838339438,-7.902175824175796e-05,-0.0002279627594627,-0.0006066661782661,-0.0001247126984126,-0.0003962347985347,-0.0003715474969474,-0.0003530179487179,-0.0002624671550671
-0.0004037321855921,-0.0002093555555555,-0.000255473015873,0.0003060838339438,-7.294273504273476e-05,-0.0002310022954822,-0.0006188605616605,-0.0001612079365079,-0.0004083333577533,-0.0003715474969474,-0.0003530179487179,-0.0002594498168498
-0.000412839072039,-0.0002154234432234,-0.000255473015873,0.0003121444444444,-7.902175824175796e-05,-0.0002340418315018,-0.0006310549450549,-0.0002068269841269,-0.0004204319169719,-0.0003775894993894,-0.0003530179487179,-0.0002594498168498
-0.0004158747008547,-0.0002245252747252,-0.0002615555555555,0.000318205054945,-7.598224664224636e-05,-0.0002431604395604,-0.0006402007326007,-0.0002554873015873,-0.0004385797557997,-0.0003866525030525,-0.0003560352869352,-0.0002654844932844
-0.0004280172161172,-0.000236661050061,-0.0002615555555555,0.0003303262759462,-8.206126984126955e-05,-0.0002492395115995,-0.0006432493284493,-0.000298065079365,-0.0004567275946275,-0.0003957155067155,-0.0003590526251526,-0.0002685018315018
-0.0004523022466422,-0.0002487968253968,-0.0002524317460317,0.0003485081074481,-0.0001002983394383,-0.0002492395115995,-0.0006432493284493,-0.0003436841269841,-0.0004688261538461,-0.0004017575091575,-0.0003650873015873,-0.0002745365079365
-0.0004644447619047,-0.0002700344322344,-0.0002585142857142,0.0003666899389499,-0.0001033378510378,-0.0002644371916971,-0.0006462979242979,-0.0003832206349206,-0.0004899986324786,-0.0004138415140415,-0.0003801739926739,-0.0002896231990231
-0.000470516019536,-0.0003003738705738,-0.0002767619047619,0.0003848717704517,-9.725882783882755e-05,-0.0002887534798534,-0.0006493465201465,-0.0004197158730158,-0.0005111711111111,-0.0004319675213675,-0.000398278021978,-0.0003137619047619
-0.000470516019536,-0.0003307133089133,-0.0003102158730158,0.0004000232967032,-7.902175824175796e-05,-0.0003191488400488,-0.0006554437118437,-0.0004592523809523,-0.0005323435897435,-0.0004531145299145,-0.0004224167277167,-0.0003439352869352
-0.0004826585347985,-0.0003549848595848,-0.0003284634920634,0.0004182051282051,-7.598224664224636e-05,-0.0003404255921855,-0.0006554437118437,-0.0004866238095238,-0.000553516068376,-0.0004712405372405,-0.000443538095238,-0.0003710913308913
-0.0004978366788766,-0.0003853242979242,-0.0003436698412698,0.0004394172649572,-7.598224664224636e-05,-0.0003647418803418,-0.0006523951159951,-0.0005170365079365,-0.0005716639072039,-0.0004863455433455,-0.0004616421245421,-0.0003891953601953
-0.000494801050061,-0.0004126297924297,-0.0003710412698412,0.0004515384859584,-6.078468864468836e-05,-0.0003920977045177,-0.0006584923076923,-0.0005444079365079,-0.0005898117460317,-0.0005014505494505,-0.0004797461538461,-0.0004072993894993
-0.0005039079365079,-0.0004369013431013,-0.0003862476190476,0.0004697203174603,-5.774517704517676e-05,-0.0004103349206349,-0.0006554437118437,-0.0005626555555555,-0.0005988856654456,-0.0005074925518925,-0.0004857808302808,-0.0004103167277167
-0.0005160504517704,-0.0004611728937728,-0.0004014539682539,0.0004879021489621,-5.774517704517676e-05,-0.0004316116727716,-0.0006523951159951,-0.0005778619047619,-0.0006109842246642,-0.0005195765567765,-0.0004978501831501,-0.0004193687423687
-0.000519086080586,-0.0004763426129426,-0.0004166603174603,0.000496993064713,-5.166615384615356e-05,-0.0004468093528693,-0.0006554437118437,-0.0005991507936507,-0.0006321567032967,-0.0005377025641025,-0.0005159542124542,-0.0004404901098901
-0.0005281929670329,-0.0004945462759462,-0.0004166603174603,0.0005091142857142,-5.470566544566516e-05,-0.0004559279609279,-0.0006523951159951,-0.0006143571428571,-0.0006442552625152,-0.0005528075702075,-0.0005310409035409,-0.0004585941391941
-0.0005372998534798,-0.000506682051282,-0.0004197015873015,0.0005212355067155,-5.774517704517676e-05,-0.000462007032967,-0.0006462979242979,-0.0006204396825396,-0.0006472799023199,-0.0005558285714285,-0.0005370755799755,-0.0004616114774114
-0.0005372998534798,-0.0005218517704517,-0.0004349079365079,0.0005272961172161,-5.166615384615356e-05,-0.0004772047130647,-0.0006432493284493,-0.0006234809523809,-0.0006472799023199,-0.0005558285714285,-0.0005370755799755,-0.0004616114774114
-0.0005312285958485,-0.0005400554334554,-0.0004622793650793,0.0005333567277167,-3.342908424908396e-05,-0.000501521001221,-0.0006402007326007,-0.0006265222222222,-0.0006563538217338,-0.0005618705738705,-0.0005461275946275,-0.0004706634920634
-0.0005372998534798,-0.0005491572649572,-0.0004683619047619,0.0005424476434676,-3.342908424908396e-05,-0.00050760007326,-0.0006402007326007,-0.000635646031746,-0.0006654277411477,-0.0005679125763125,-0.0005521622710622,-0.0004766981684981
-0.0005555136263736,-0.0005461233211233,-0.0004440317460317,0.0005485082539682,-5.470566544566516e-05,-0.0004954419291819,-0.0006371521367521,-0.0006386873015873,-0.0006684523809523,-0.0005739545787545,-0.0005521622710622,-0.0004766981684981
-0.0005646205128205,-0.0005430893772893,-0.0004318666666666,0.0005515385592185,-6.686371184371155e-05,-0.0004863233211233,-0.0006371521367521,-0.0006447698412698,-0.000671477020757,-0.0005799965811965,-0.0005612142857142,-0.0004797155067155
-0.0005555136263736,-0.0005430893772893,-0.0004440317460317,0.0005485082539682,-5.470566544566516e-05,-0.0004924023931623,-0.0006402007326007,-0.0006478111111111,-0.0006745016605616,-0.0005830175824175,-0.0005672489621489,-0.0004857501831501
-0.0005433711111111,-0.0005491572649572,-0.0004622793650793,0.0005454779487179,-3.950810744810717e-05,-0.0005045605372405,-0.0006432493284493,-0.0006508523809523,-0.0006775263003663,-0.0005860385836385,-0.0005672489621489,-0.0004917848595848
-0.0005433711111111,-0.000558259096459,-0.0004714031746031,0.0005485082539682,-3.6468595848595565e-05,-0.0005136791452991,-0.0006402007326007,-0.0006508523809523,-0.0006835755799755,-0.0005890595848595,-0.0005702663003663,-0.0004978195360195
-0.0005494423687423,-0.0005673609279609,-0.0004744444444444,0.0005575991697191,-3.6468595848595565e-05,-0.0005197582173382,-0.0006371521367521,-0.0006447698412698,-0.0006835755799755,-0.0005890595848595,-0.0005732836385836,-0.0005008368742368
-0.0005555136263736,-0.0005764627594627,-0.0004774857142857,0.0005636597802197,-3.950810744810717e-05,-0.0005258372893772,-0.0006310549450549,-0.0006386873015873,-0.0006835755799755,-0.0005890595848595,-0.0005732836385836,-0.0005038542124542
-0.0005555136263736,-0.0005825306471306,-0.0004805269841269,0.00056669008547,-3.6468595848595565e-05,-0.0005319163614163,-0.0006249577533577,-0.0006326047619047,-0.0006805509401709,-0.0005890595848595,-0.0005763009768009,-0.0005038542124542
-0.0005524779975579,-0.0005825306471306,-0.0004835682539682,0.00056669008547,-3.342908424908396e-05,-0.0005319163614163,-0.0006280063492063,-0.000635646031746,-0.0006805509401709,-0.0005951015873015,-0.0005793183150183,-0.0005038542124542
-0.0005524779975579,-0.0005885985347985,-0.0004896507936507,0.0005697203907203,-3.0389572649572364e-05,-0.0005379954334554,-0.0006219091575091,-0.000635646031746,-0.0006835755799755,-0.0005981225885225,-0.0005793183150183,-0.0005098888888888
-0.0005585492551892,-0.0005916324786324,-0.0004896507936507,0.0005727506959706,-3.342908424908396e-05,-0.0005410349694749,-0.0006158119658119,-0.0006386873015873,-0.0006896248595848,-0.0006011435897435,-0.0005823356532356,-0.0005098888888888
-0.0005524779975579,-0.0005855645909645,-0.0004866095238095,0.00056669008547,-3.342908424908396e-05,-0.0005349558974358,-0.0006188605616605,-0.0006386873015873,-0.0006896248595848,-0.0006041645909645,-0.0005853529914529,-0.0005098888888888
-0.0005494423687423,-0.0005885985347985,-0.000492692063492,0.00056669008547,-2.735006105006077e-05,-0.0005410349694749,-0.0006249577533577,-0.000635646031746,-0.0006926494993894,-0.0006071855921855,-0.0005913876678876,-0.0005129062271062
-0.0005494423687423,-0.0005916324786324,-0.0004957333333333,0.0005697203907203,-2.735006105006077e-05,-0.0005440745054945,-0.0006219091575091,-0.0006326047619047,-0.0006926494993894,-0.0006132275946275,-0.000594405006105,-0.0005159235653235
-0.0005646205128205,-0.0005855645909645,-0.0004774857142857,0.0005727506959706,-4.254761904761877e-05,-0.0005319163614163,-0.0006158119658119,-0.0006234809523809,-0.0006835755799755,-0.0006041645909645,-0.0005883703296703,-0.0005098888888888
-0.000576763028083,-0.0005855645909645,-0.000459238095238,0.0005788113064713,-5.774517704517676e-05,-0.0005227977533577,-0.0006097147741147,-0.0006173984126984,-0.000671477020757,-0.0005981225885225,-0.0005853529914529,-0.0005068715506715
-0.0005706917704517,-0.0005825306471306,-0.0004653206349206,0.000575781001221,-5.166615384615356e-05,-0.0005227977533577,-0.0006066661782661,-0.0006173984126984,-0.000671477020757,-0.0005981225885225,-0.0005853529914529,-0.0005068715506715
-0.0005494423687423,-0.0005794967032967,-0.0004805269841269,0.0005636597802197,-3.342908424908396e-05,-0.0005288768253968,-0.0006158119658119,-0.0006173984126984,-0.0006745016605616,-0.0006011435897435,-0.0005883703296703,-0.0005129062271062
-0.0005464067399267,-0.0005794967032967,-0.0004835682539682,0.0005606294749694,-3.0389572649572364e-05,-0.0005319163614163,-0.0006188605616605,-0.0006173984126984,-0.0006775263003663,-0.0006011435897435,-0.0005913876678876,-0.0005159235653235
-0.0005555136263736,-0.0005825306471306,-0.0004774857142857,0.00056669008547,-3.950810744810717e-05,-0.0005288768253968,-0.0006188605616605,-0.0006143571428571,-0.0006745016605616,-0.0006011435897435,-0.0005913876678876,-0.0005159235653235
-0.0005555136263736,-0.0005885985347985,-0.0004866095238095,0.0005697203907203,-3.342908424908396e-05,-0.0005379954334554,-0.0006127633699633,-0.0006113158730158,-0.000671477020757,-0.0005981225885225,-0.0005913876678876,-0.0005159235653235
-0.0005585492551892,-0.0005885985347985,-0.0004835682539682,0.0005727506959706,-3.6468595848595565e-05,-0.0005349558974358,-0.0006127633699633,-0.0006052333333333,-0.0006684523809523,-0.0005981225885225,-0.0005913876678876,-0.0005159235653235
-0.0005555136263736,-0.0005794967032967,-0.0004774857142857,0.00056669008547,-3.950810744810717e-05,-0.0005288768253968,-0.0006158119658119,-0.0005991507936507,-0.0006654277411477,-0.0005951015873015,-0.0005883703296703,-0.0005129062271062
-0.0005464067399267,-0.0005734288156288,-0.0004805269841269,0.0005575991697191,-3.342908424908396e-05,-0.0005258372893772,-0.0006219091575091,-0.0005991507936507,-0.0006624031013431,-0.0005920805860805,-0.0005853529914529,-0.0005129062271062
-0.0005494423687423,-0.0005703948717948,-0.0004744444444444,0.0005575991697191,-3.6468595848595565e-05,-0.0005227977533577,-0.0006249577533577,-0.0005991507936507,-0.0006593784615384,-0.0005890595848595,-0.0005823356532356,-0.0005098888888888
-0.0005494423687423,-0.0005673609279609,-0.0004653206349206,0.0005575991697191,-4.254761904761877e-05,-0.0005167186813186,-0.0006219091575091,-0.0005961095238095,-0.0006593784615384,-0.0005830175824175,-0.0005793183150183,-0.0005068715506715
-0.0005342642246642,-0.000561293040293,-0.0004805269841269,0.0005454779487179,-2.735006105006077e-05,-0.0005197582173382,-0.0006280063492063,-0.0005991507936507,-0.0006624031013431,-0.0005860385836385,-0.0005823356532356,-0.0005129062271062
-0.0005221217094017,-0.000558259096459,-0.000492692063492,0.0005394173382173,-1.5192014652014368e-05,-0.0005258372893772,-0.0006341035409035,-0.0005991507936507,-0.0006654277411477,-0.0005860385836385,-0.0005823356532356,-0.0005159235653235
-0.0005372998534798,-0.0005491572649572,-0.0004683619047619,0.0005424476434676,-3.342908424908396e-05,-0.00050760007326,-0.0006310549450549,-0.0005961095238095,-0.0006563538217338,-0.0005739545787545,-0.0005672489621489,-0.0005008368742368
-0.0005464067399267,-0.0005430893772893,-0.0004501142857142,0.0005424476434676,-4.862664224664196e-05,-0.0004954419291819,-0.0006310549450549,-0.0005930682539682,-0.0006503045421245,-0.0005679125763125,-0.0005612142857142,-0.0004948021978021
-0.0005433711111111,-0.0005400554334554,-0.0004501142857142,0.0005394173382173,-4.558713064713037e-05,-0.0004954419291819,-0.0006341035409035,-0.0005961095238095,-0.0006533291819291,-0.0005709335775335,-0.0005642316239316,-0.0004948021978021
-0.0005342642246642,-0.0005339875457875,-0.0004561968253968,0.0005333567277167,-3.950810744810717e-05,-0.0004954419291819,-0.0006402007326007,-0.000602192063492,-0.0006533291819291,-0.0005709335775335,-0.0005642316239316,-0.0004978195360195
-0.0005281929670329,-0.0005309536019536,-0.0004622793650793,0.0005272961172161,-3.342908424908396e-05,-0.0004954419291819,-0.0006462979242979,-0.0006052333333333,-0.0006563538217338,-0.0005709335775335,-0.0005642316239316,-0.0005008368742368
-0.0005281929670329,-0.0005309536019536,-0.0004561968253968,0.0005272961172161,-3.6468595848595565e-05,-0.0004924023931623,-0.0006493465201465,-0.000602192063492,-0.0006533291819291,-0.0005648915750915,-0.0005551796092796,-0.0004948021978021
-0.0005403354822954,-0.0005248857142857,-0.0004379492063492,0.0005303264224664,-5.166615384615356e-05,-0.0004802442490842,-0.0006493465201465,-0.0005991507936507,-0.0006442552625152,-0.0005528075702075,-0.0005431102564102,-0.0004797155067155
-0.0005494423687423,-0.0005309536019536,-0.0004349079365079,0.0005394173382173,-5.774517704517676e-05,-0.0004832837851037,-0.0006432493284493,-0.0005991507936507,-0.0006412306227106,-0.0005467655677655,-0.0005400929181929,-0.0004736808302808
-0.0005372998534798,-0.0005339875457875,-0.0004501142857142,0.0005333567277167,-4.254761904761877e-05,-0.0004924023931623,-0.0006462979242979,-0.000602192063492,-0.0006472799023199,-0.0005497865689865,-0.0005431102564102,-0.0004766981684981
-0.000519086080586,-0.0005279196581196,-0.000459238095238,0.0005212355067155,-3.0389572649572364e-05,-0.0004924023931623,-0.0006523951159951,-0.0006052333333333,-0.0006503045421245,-0.0005528075702075,-0.0005431102564102,-0.0004797155067155
-0.0005221217094017,-0.0005218517704517,-0.0004501142857142,0.0005212355067155,-3.6468595848595565e-05,-0.0004863233211233,-0.0006523951159951,-0.0006052333333333,-0.0006472799023199,-0.0005437445665445,-0.0005370755799755,-0.0004766981684981
-0.0005403354822954,-0.0005248857142857,-0.0004409904761904,0.0005303264224664,-4.862664224664196e-05,-0.0004832837851037,-0.0006493465201465,-0.0006082746031746,-0.0006472799023199,-0.0005467655677655,-0.0005370755799755,-0.0004766981684981
-0.0005372998534798,-0.0005248857142857,-0.0004409904761904,0.0005303264224664,-4.862664224664196e-05,-0.0004832837851037,-0.0006523951159951,-0.0006143571428571,-0.0006563538217338,-0.0005528075702075,-0.0005431102564102,-0.0004827328449328
-0.0005312285958485,-0.0005218517704517,-0.000447073015873,0.0005242658119658,-4.254761904761877e-05,-0.0004832837851037,-0.0006615409035409,-0.0006234809523809,-0.0006654277411477,-0.0005588495726495,-0.0005461275946275,-0.0004827328449328
-0.0005281929670329,-0.0005157838827838,-0.0004440317460317,0.0005212355067155,-4.254761904761877e-05,-0.0004802442490842,-0.0006615409035409,-0.0006265222222222,-0.0006624031013431,-0.0005558285714285,-0.0005431102564102,-0.0004827328449328
-0.0005251573382173,-0.0005188178266178,-0.000447073015873,0.0005212355067155,-3.950810744810717e-05,-0.0004832837851037,-0.0006615409035409,-0.0006265222222222,-0.0006593784615384,-0.0005558285714285,-0.0005461275946275,-0.0004857501831501
-0.0005251573382173,-0.0005218517704517,-0.000447073015873,0.0005212355067155,-3.950810744810717e-05,-0.0004832837851037,-0.0006615409035409,-0.0006234809523809,-0.0006593784615384,-0.0005558285714285,-0.0005491449328449,-0.0004887675213675
-0.0005342642246642,-0.0005218517704517,-0.0004440317460317,0.0005272961172161,-4.558713064713037e-05,-0.0004832837851037,-0.0006584923076923,-0.0006265222222222,-0.0006593784615384,-0.0005528075702075,-0.0005461275946275,-0.0004857501831501
-0.0005433711111111,-0.0005218517704517,-0.0004288253968253,0.0005303264224664,-5.774517704517676e-05,-0.0004741651770451,-0.0006554437118437,-0.0006234809523809,-0.0006533291819291,-0.0005467655677655,-0.0005400929181929,-0.0004797155067155
-0.0005464067399267,-0.0005218517704517,-0.0004257841269841,0.0005333567277167,-6.078468864468836e-05,-0.0004741651770451,-0.0006554437118437,-0.0006234809523809,-0.0006533291819291,-0.0005467655677655,-0.0005370755799755,-0.0004736808302808
-0.0005342642246642,-0.0005218517704517,-0.0004379492063492,0.0005272961172161,-4.862664224664196e-05,-0.0004802442490842,-0.0006615409035409,-0.0006326047619047,-0.0006563538217338,-0.0005497865689865,-0.0005370755799755,-0.0004766981684981
-0.0005312285958485,-0.0005279196581196,-0.000447073015873,0.0005272961172161,-4.254761904761877e-05,-0.0004863233211233,-0.000667638095238,-0.0006386873015873,-0.0006654277411477,-0.0005558285714285,-0.0005431102564102,-0.0004827328449328
-0.0005403354822954,-0.0005279196581196,-0.0004409904761904,0.0005333567277167,-4.862664224664196e-05,-0.0004832837851037,-0.0006615409035409,-0.0006386873015873,-0.0006654277411477,-0.0005588495726495,-0.0005461275946275,-0.0004827328449328
-0.0005403354822954,-0.0005218517704517,-0.0004349079365079,0.0005303264224664,-5.166615384615356e-05,-0.0004772047130647,-0.0006615409035409,-0.0006386873015873,-0.0006624031013431,-0.0005558285714285,-0.0005431102564102,-0.0004797155067155
-0.0005372998534798,-0.0005248857142857,-0.0004379492063492,0.0005303264224664,-4.862664224664196e-05,-0.0004802442490842,-0.0006584923076923,-0.000635646031746,-0.0006593784615384,-0.0005528075702075,-0.0005431102564102,-0.0004797155067155
-0.0005312285958485,-0.0005339875457875,-0.0004531555555555,0.0005303264224664,-3.950810744810717e-05,-0.0004924023931623,-0.0006615409035409,-0.0006386873015873,-0.0006624031013431,-0.0005588495726495,-0.0005491449328449,-0.0004857501831501
-0.0005221217094017,-0.0005370214896214,-0.0004653206349206,0.0005272961172161,-2.735006105006077e-05,-0.000501521001221,-0.000667638095238,-0.0006447698412698,-0.000671477020757,-0.0005648915750915,-0.0005551796092796,-0.0004948021978021
-0.0005312285958485,-0.0005339875457875,-0.0004561968253968,0.0005303264224664,-3.6468595848595565e-05,-0.0004954419291819,-0.0006645894993894,-0.0006447698412698,-0.000671477020757,-0.0005648915750915,-0.0005581969474969,-0.0004948021978021
-0.0005403354822954,-0.0005279196581196,-0.0004409904761904,0.0005333567277167,-4.862664224664196e-05,-0.0004832837851037,-0.0006615409035409,-0.0006447698412698,-0.0006684523809523,-0.0005588495726495,-0.0005491449328449,-0.0004887675213675
-0.0005342642246642,-0.0005248857142857,-0.0004409904761904,0.0005272961172161,-4.558713064713037e-05,-0.0004832837851037,-0.0006615409035409,-0.0006447698412698,-0.0006654277411477,-0.0005588495726495,-0.0005461275946275,-0.0004827328449328
-0.0005372998534798,-0.0005279196581196,-0.0004379492063492,0.0005303264224664,-4.862664224664196e-05,-0.0004832837851037,-0.000667638095238,-0.0006478111111111,-0.0006684523809523,-0.0005588495726495,-0.0005461275946275,-0.0004827328449328
-0.0005494423687423,-0.0005309536019536,-0.0004349079365079,0.0005394173382173,-5.774517704517676e-05,-0.0004832837851037,-0.000667638095238,-0.0006447698412698,-0.0006684523809523,-0.0005588495726495,-0.0005461275946275,-0.0004827328449328
-0.0005494423687423,-0.0005279196581196,-0.0004349079365079,0.000536387032967,-5.774517704517676e-05,-0.0004802442490842,-0.000667638095238,-0.0006447698412698,-0.0006684523809523,-0.0005588495726495,-0.0005461275946275,-0.0004857501831501
-0.0005403354822954,-0.0005248857142857,-0.0004379492063492,0.0005303264224664,-5.166615384615356e-05,-0.0004802442490842,-0.0006706866910866,-0.0006478111111111,-0.000671477020757,-0.0005588495726495,-0.0005491449328449,-0.0004887675213675
-0.0005342642246642,-0.0005309536019536,-0.000447073015873,0.0005303264224664,-4.254761904761877e-05,-0.0004893628571428,-0.0006706866910866,-0.0006478111111111,-0.000671477020757,-0.0005618705738705,-0.0005521622710622,-0.0004887675213675
-0.0005433711111111,-0.0005309536019536,-0.0004379492063492,0.000536387032967,-5.166615384615356e-05,-0.0004832837851037,-0.000667638095238,-0.0006447698412698,-0.000671477020757,-0.0005618705738705,-0.0005491449328449,-0.0004857501831501
-0.0005433711111111,-0.0005339875457875,-0.0004440317460317,0.000536387032967,-4.862664224664196e-05,-0.0004893628571428,-0.000667638095238,-0.0006508523809523,-0.000671477020757,-0.0005648915750915,-0.0005551796092796,-0.0004948021978021
-0.0005464067399267,-0.0005339875457875,-0.0004379492063492,0.0005394173382173,-5.470566544566516e-05,-0.0004863233211233,-0.0006706866910866,-0.0006508523809523,-0.0006654277411477,-0.0005618705738705,-0.0005551796092796,-0.0004948021978021
-0.0005524779975579,-0.0005339875457875,-0.0004349079365079,0.0005424476434676,-5.774517704517676e-05,-0.0004832837851037,-0.000667638095238,-0.0006478111111111,-0.0006624031013431,-0.0005558285714285,-0.0005491449328449,-0.0004887675213675
-0.0005372998534798,-0.0005370214896214,-0.0004501142857142,0.000536387032967,-4.254761904761877e-05,-0.0004924023931623,-0.0006706866910866,-0.0006478111111111,-0.0006654277411477,-0.0005588495726495,-0.0005491449328449,-0.0004887675213675
-0.0005281929670329,-0.0005370214896214,-0.000459238095238,0.0005303264224664,-3.342908424908396e-05,-0.0004984814652014,-0.0006737352869352,-0.0006538936507936,-0.0006684523809523,-0.0005618705738705,-0.0005521622710622,-0.0004917848595848
-0.0005342642246642,-0.0005430893772893,-0.0004622793650793,0.000536387032967,-3.6468595848595565e-05,-0.000501521001221,-0.0006706866910866,-0.0006538936507936,-0.000671477020757,-0.0005618705738705,-0.0005551796092796,-0.0004948021978021
-0.0005464067399267,-0.0005491572649572,-0.0004531555555555,0.0005454779487179,-4.558713064713037e-05,-0.000501521001221,-0.000667638095238,-0.0006508523809523,-0.0006684523809523,-0.0005618705738705,-0.0005551796092796,-0.0004917848595848
-0.0005494423687423,-0.0005461233211233,-0.0004440317460317,0.0005454779487179,-5.166615384615356e-05,-0.0004954419291819,-0.0006645894993894,-0.0006508523809523,-0.0006624031013431,-0.0005588495726495,-0.0005491449328449,-0.0004827328449328
-0.0005433711111111,-0.0005430893772893,-0.0004531555555555,0.0005424476434676,-4.558713064713037e-05,-0.0004984814652014,-0.000667638095238,-0.0006508523809523,-0.0006654277411477,-0.0005588495726495,-0.0005491449328449,-0.0004797155067155
-0.0005372998534798,-0.0005430893772893,-0.0004622793650793,0.0005394173382173,-3.6468595848595565e-05,-0.000501521001221,-0.0006737352869352,-0.0006538936507936,-0.0006684523809523,-0.0005618705738705,-0.0005491449328449,-0.0004857501831501
-0.0005342642246642,-0.0005461233211233,-0.0004653206349206,0.0005394173382173,-3.342908424908396e-05,-0.0005045605372405,-0.0006706866910866,-0.0006508523809523,-0.000671477020757,-0.0005648915750915,-0.0005521622710622,-0.0004887675213675
-0.0005464067399267,-0.0005461233211233,-0.0004561968253968,0.0005454779487179,-4.558713064713037e-05,-0.000501521001221,-0.000667638095238,-0.0006478111111111,-0.000671477020757,-0.0005648915750915,-0.0005521622710622,-0.0004857501831501
-0.0005433711111111,-0.0005400554334554,-0.0004531555555555,0.0005394173382173,-4.558713064713037e-05,-0.0004954419291819,-0.000667638095238,-0.0006508523809523,-0.0006745016605616,-0.0005679125763125,-0.0005551796092796,-0.0004887675213675
-0.0005433711111111,-0.0005400554334554,-0.0004531555555555,0.0005394173382173,-4.558713064713037e-05,-0.0004954419291819,-0.0006706866910866,-0.0006538936507936,-0.0006745016605616,-0.0005709335775335,-0.0005581969474969,-0.0004917848595848
-0.0005494423687423,-0.0005430893772893,-0.000447073015873,0.0005454779487179,-5.166615384615356e-05,-0.0004954419291819,-0.000667638095238,-0.0006508523809523,-0.000671477020757,-0.0005679125763125,-0.0005551796092796,-0.0004887675213675
-0.0005524779975579,-0.0005521912087912,-0.0004531555555555,0.0005515385592185,-4.862664224664196e-05,-0.000501521001221,-0.0006645894993894,-0.0006508523809523,-0.000671477020757,-0.0005679125763125,-0.0005551796092796,-0.0004887675213675
-0.0005524779975579,-0.0005552251526251,-0.0004561968253968,0.0005515385592185,-4.862664224664196e-05,-0.0005045605372405,-0.0006645894993894,-0.0006478111111111,-0.0006745016605616,-0.0005648915750915,-0.0005551796092796,-0.0004857501831501
-0.0005433711111111,-0.0005521912087912,-0.0004622793650793,0.0005454779487179,-3.950810744810717e-05,-0.00050760007326,-0.000667638095238,-0.0006508523809523,-0.0006745016605616,-0.0005679125763125,-0.0005551796092796,-0.0004857501831501
-0.0005342642246642,-0.0005521912087912,-0.0004683619047619,0.0005424476434676,-3.342908424908396e-05,-0.0005106396092796,-0.0006737352869352,-0.0006508523809523,-0.0006775263003663,-0.0005709335775335,-0.0005551796092796,-0.0004917848595848
-0.0005403354822954,-0.0005552251526251,-0.0004653206349206,0.0005454779487179,-3.6468595848595565e-05,-0.0005106396092796,-0.0006706866910866,-0.0006478111111111,-0.0006745016605616,-0.0005679125763125,-0.0005521622710622,-0.0004887675213675
-0.0005464067399267,-0.000558259096459,-0.0004622793650793,0.0005515385592185,-4.254761904761877e-05,-0.0005106396092796,-0.0006615409035409,-0.0006478111111111,-0.0006684523809523,-0.0005679125763125,-0.0005551796092796,-0.0004857501831501
-0.0005464067399267,-0.000561293040293,-0.0004683619047619,0.0005515385592185,-3.950810744810717e-05,-0.0005136791452991,-0.0006584923076923,-0.0006508523809523,-0.000671477020757,-0.0005679125763125,-0.0005581969474969,-0.0004887675213675
-0.0005403354822954,-0.000561293040293,-0.0004774857142857,0.0005485082539682,-3.0389572649572364e-05,-0.0005197582173382,-0.0006584923076923,-0.0006508523809523,-0.0006745016605616,-0.0005679125763125,-0.0005551796092796,-0.0004887675213675
-0.0005372998534798,-0.0005552251526251,-0.0004714031746031,0.0005454779487179,-3.342908424908396e-05,-0.0005136791452991,-0.0006645894993894,-0.0006478111111111,-0.0006775263003663,-0.0005679125763125,-0.0005521622710622,-0.0004857501831501
-0.0005342642246642,-0.0005400554334554,-0.000459238095238,0.000536387032967,-3.6468595848595565e-05,-0.0004984814652014,-0.0006584923076923,-0.0006478111111111,-0.000671477020757,-0.0005618705738705,-0.0005491449328449,-0.0004797155067155
-0.0005342642246642,-0.0005309536019536,-0.000447073015873,0.0005303264224664,-4.254761904761877e-05,-0.0004893628571428,-0.0006523951159951,-0.0006447698412698,-0.0006624031013431,-0.0005558285714285,-0.0005431102564102,-0.0004766981684981
-0.0005281929670329,-0.0005309536019536,-0.0004531555555555,0.0005272961172161,-3.6468595848595565e-05,-0.0004924023931623,-0.0006432493284493,-0.0006417285714285,-0.0006624031013431,-0.0005528075702075,-0.0005431102564102,-0.0004797155067155
-0.0005221217094017,-0.0005248857142857,-0.000459238095238,0.0005212355067155,-3.0389572649572364e-05,-0.0004924023931623,-0.0006402007326007,-0.0006386873015873,-0.0006563538217338,-0.0005528075702075,-0.0005400929181929,-0.0004797155067155
-0.0005221217094017,-0.0005157838827838,-0.000447073015873,0.0005182052014652,-3.6468595848595565e-05,-0.0004802442490842,-0.0006402007326007,-0.0006295634920634,-0.0006503045421245,-0.0005467655677655,-0.0005340582417582,-0.0004676461538461
-0.0005221217094017,-0.0004945462759462,-0.0004288253968253,0.0005060839804639,-4.558713064713037e-05,-0.000462007032967,-0.0006310549450549,-0.0006173984126984,-0.0006321567032967,-0.0005316605616605,-0.0005219888888888,-0.0004585941391941
-0.000519086080586,-0.0004672407814407,-0.0004044952380952,0.0004909324542124,-5.774517704517676e-05,-0.0004346512087912,-0.0006188605616605,-0.0006052333333333,-0.0006170335042735,-0.0005165555555555,-0.0005099195360195,-0.0004495421245421
-0.0005069435653235,-0.000455105006105,-0.0004014539682539,0.0004788112332112,-5.166615384615356e-05,-0.0004285721367521,-0.0006158119658119,-0.0005991507936507,-0.0006079595848595,-0.0005105135531135,-0.0005069021978021,-0.0004435074481074
-0.0004978366788766,-0.0004490371184371,-0.0004044952380952,0.0004727506227106,-4.558713064713037e-05,-0.0004255326007326,-0.0006219091575091,-0.0005900269841269,-0.0006049349450549,-0.0005074925518925,-0.0005038848595848,-0.0004404901098901
-0.0004856941636141,-0.0004429692307692,-0.000413619047619,0.0004636597069597,-3.6468595848595565e-05,-0.0004285721367521,-0.0006310549450549,-0.0005809031746031,-0.0005988856654456,-0.0005014505494505,-0.0004978501831501,-0.0004344554334554
-0.0004796229059829,-0.0004429692307692,-0.0004197015873015,0.0004606294017094,-3.0389572649572364e-05,-0.0004316116727716,-0.0006523951159951,-0.0005869857142857,-0.0005988856654456,-0.0005014505494505,-0.0004948328449328,-0.0004344554334554
-0.0004917654212454,-0.0004581389499389,-0.0004227428571428,0.0004727506227106,-3.342908424908396e-05,-0.0004407302808302,-0.000682881074481,-0.0006143571428571,-0.0006170335042735,-0.0005135345543345,-0.0005038848595848,-0.0004404901098901
-0.0004978366788766,-0.0004672407814407,-0.0004257841269841,0.0004818415384615,-3.6468595848595565e-05,-0.0004468093528693,-0.0006950754578754,-0.0006326047619047,-0.0006321567032967,-0.0005256185592185,-0.0005129368742368,-0.0004465247863247
-0.0005008723076923,-0.0004763426129426,-0.0004318666666666,0.0004879021489621,-3.342908424908396e-05,-0.0004528884249084,-0.0006920268620268,-0.0006417285714285,-0.0006412306227106,-0.0005346815628815,-0.0005189715506715,-0.0004525594627594
-0.0005069435653235,-0.0005006141636141,-0.000447073015873,0.0005030536752136,-3.0389572649572364e-05,-0.0004741651770451,-0.0006889782661782,-0.0006478111111111,-0.0006533291819291,-0.0005437445665445,-0.0005280235653235,-0.0004585941391941
-0.0005160504517704,-0.0005188178266178,-0.0004561968253968,0.0005151748962148,-3.0389572649572364e-05,-0.0004863233211233,-0.0006889782661782,-0.0006508523809523,-0.0006593784615384,-0.0005467655677655,-0.0005310409035409,-0.0004616114774114
-0.0005069435653235,-0.0005157838827838,-0.0004622793650793,0.0005091142857142,-2.1271037851037568e-05,-0.0004893628571428,-0.0006920268620268,-0.0006508523809523,-0.0006624031013431,-0.0005437445665445,-0.0005310409035409,-0.0004616114774114
-0.000494801050061,-0.000506682051282,-0.0004653206349206,0.0005000233699633,-1.5192014652014368e-05,-0.0004863233211233,-0.000698124053724,-0.0006569349206349,-0.0006654277411477,-0.0005467655677655,-0.0005310409035409,-0.0004646288156288
-0.0005039079365079,-0.0005188178266178,-0.0004653206349206,0.0005091142857142,-1.823152625152597e-05,-0.0004924023931623,-0.000698124053724,-0.0006630174603174,-0.0006745016605616,-0.0005558285714285,-0.0005370755799755,-0.0004676461538461
-0.0005130148229548,-0.0005370214896214,-0.0004774857142857,0.0005242658119658,-1.823152625152597e-05,-0.00050760007326,-0.0007011726495726,-0.0006721412698412,-0.0006866002197802,-0.0005709335775335,-0.0005521622710622,-0.0004797155067155
-0.0005099791941391,-0.0005491572649572,-0.0004866095238095,0.0005272961172161,-1.2152503052502767e-05,-0.0005167186813186,-0.0007042212454212,-0.0006751825396825,-0.0006926494993894,-0.0005739545787545,-0.0005551796092796,-0.0004857501831501
-0.0005281929670329,-0.0005521912087912,-0.0004744444444444,0.0005394173382173,-2.735006105006077e-05,-0.0005136791452991,-0.000698124053724,-0.0006751825396825,-0.0006896248595848,-0.0005739545787545,-0.0005551796092796,-0.0004827328449328
-0.0005342642246642,-0.0005461233211233,-0.0004653206349206,0.0005394173382173,-3.342908424908396e-05,-0.0005045605372405,-0.0006920268620268,-0.0006782238095238,-0.0006866002197802,-0.0005709335775335,-0.0005521622710622,-0.0004827328449328
-0.0005464067399267,-0.0005521912087912,-0.0004622793650793,0.0005485082539682,-4.254761904761877e-05,-0.00050760007326,-0.0006889782661782,-0.000681265079365,-0.0006926494993894,-0.0005739545787545,-0.0005551796092796,-0.0004857501831501
-0.0005585492551892,-0.0005673609279609,-0.000459238095238,0.0005606294749694,-4.862664224664196e-05,-0.0005136791452991,-0.0006889782661782,-0.0006873476190476,-0.0006986987789987,-0.0005799965811965,-0.0005612142857142,-0.0004887675213675
-0.0005676561416361,-0.0005764627594627,-0.0004622793650793,0.0005697203907203,-5.166615384615356e-05,-0.0005197582173382,-0.0006859296703296,-0.0006903888888888,-0.0007017234188034,-0.0005860385836385,-0.0005672489621489,-0.0004917848595848
-0.0005615848840048,-0.0005794967032967,-0.0004714031746031,0.0005697203907203,-4.558713064713037e-05,-0.0005258372893772,-0.0006859296703296,-0.0006934301587301,-0.000704748058608,-0.0005890595848595,-0.0005702663003663,-0.0004948021978021
