aVR,aVL,aVF,V4,V5,V6,V1,V2,V3,I,II,III
-296,-704.0,-1124.0,-267.0,-684.0,-1094.0,-284.0,-677.0,-1077.0,-249.0,-698.0,-1170.0
-296,-704.0,-1124.0,-267.0,-684.0,-1094.0,-284.0,-677.0,-1077.0,-255.0,-698.0,-1164.0
-295,-703.0,-1124.0,-267.0,-683.0,-1093.0,-291.0,-671.0,-1073.0,-260.0,-702.0,-1156.0
-293,-703.0,-1124.0,-266.0,-683.0,-1092.0,-292.0,-656.0,-1064.0,-264.0,-708.0,-1148.0
-295,-701.0,-1124.0,-266.0,-682.0,-1091.0,-296.0,-666.0,-1071.0,-267.0,-715.0,-1141.0
-296,-703.0,-1124.0,-265.0,-681.0,-1090.0,-298.0,-671.0,-1074.0,-270.0,-722.0,-1134.0
-296,-703.0,-1123.0,-263.0,-680.0,-1089.0,-300.0,-675.0,-1077.0,-274.0,-728.0,-1127.0
-296,-703.0,-1122.0,-265.0,-680.0,-1089.0,-302.0,-679.0,-1081.0,-278.0,-734.0,-1120.0
-297,-704.0,-1122.0,-265.0,-678.0,-1089.0,-303.0,-683.0,-1084.0,-283.0,-737.0,-1116.0
-298,-704.0,-1121.0,-266.0,-680.0,-1088.0,-305.0,-688.0,-1088.0,-288.0,-740.0,-1113.0
-298,-704.0,-1120.0,-267.0,-680.0,-1086.0,-306.0,-691.0,-1091.0,-292.0,-744.0,-1111.0
-298,-704.0,-1120.0,-269.0,-680.0,-1088.0,-307.0,-694.0,-1093.0,-298.0,-740.0,-1109.0
-299,-704.0,-1119.0,-270.0,-681.0,-1088.0,-307.0,-697.0,-1096.0,-303.0,-737.0,-1109.0
-299,-704.0,-1119.0,-273.0,-683.0,-1089.0,-308.0,-700.0,-1097.0,-306.0,-735.0,-1108.0
-300,-705.0,-1118.0,-275.0,-684.0,-1089.0,-309.0,-702.0,-1099.0,-309.0,-730.0,-1108.0
-300,-705.0,-1117.0,-277.0,-685.0,-1090.0,-309.0,-704.0,-1101.0,-311.0,-727.0,-1107.0
-301,-705.0,-1117.0,-267.0,-687.0,-1091.0,-309.0,-705.0,-1102.0,-313.0,-724.0,-1107.0
-301,-705.0,-1116.0,-278.0,-688.0,-1092.0,-309.0,-706.0,-1103.0,-313.0,-722.0,-1107.0
-302,-706.0,-1115.0,-286.0,-690.0,-1093.0,-309.0,-707.0,-1103.0,-314.0,-719.0,-1106.0
-302,-706.0,-1114.0,-289.0,-692.0,-1094.0,-309.0,-708.0,-1104.0,-315.0,-718.0,-1106.0
-302,-707.0,-1113.0,-291.0,-694.0,-1095.0,-309.0,-708.0,-1105.0,-315.0,-717.0,-1106.0
-303,-707.0,-1112.0,-294.0,-696.0,-1096.0,-309.0,-708.0,-1105.0,-316.0,-717.0,-1106.0
-304,-708.0,-1111.0,-296.0,-698.0,-1097.0,-309.0,-708.0,-1105.0,-315.0,-716.0,-1106.0
-305,-708.0,-1110.0,-299.0,-700.0,-1098.0,-309.0,-708.0,-1105.0,-315.0,-716.0,-1106.0
-305,-709.0,-1108.0,-301.0,-701.0,-1099.0,-309.0,-708.0,-1105.0,-314.0,-716.0,-1106.0
-306,-709.0,-1107.0,-303.0,-703.0,-1100.0,-309.0,-708.0,-1105.0,-314.0,-715.0,-1105.0
-307,-710.0,-1106.0,-305.0,-704.0,-1101.0,-309.0,-708.0,-1105.0,-314.0,-714.0,-1105.0
-307,-711.0,-1104.0,-306.0,-706.0,-1101.0,-309.0,-708.0,-1105.0,-314.0,-714.0,-1105.0
-308,-712.0,-1103.0,-307.0,-707.0,-1102.0,-309.0,-708.0,-1105.0,-314.0,-713.0,-1105.0
-308,-713.0,-1101.0,-309.0,-707.0,-1103.0,-309.0,-707.0,-1105.0,-313.0,-713.0,-1104.0
-309,-714.0,-1099.0,-309.0,-708.0,-1104.0,-309.0,-707.0,-1105.0,-313.0,-712.0,-1104.0
-310,-715.0,-1098.0,-310.0,-708.0,-1104.0,-309.0,-707.0,-1105.0,-313.0,-712.0,-1103.0
-310,-716.0,-1096.0,-311.0,-708.0,-1105.0,-309.0,-707.0,-1105.0,-313.0,-712.0,-1103.0
-311,-717.0,-1094.0,-311.0,-708.0,-1105.0,-309.0,-706.0,-1105.0,-313.0,-711.0,-1102.0
-312,-718.0,-1093.0,-311.0,-709.0,-1107.0,-309.0,-707.0,-1105.0,-312.0,-711.0,-1101.0
-313,-718.0,-1091.0,-312.0,-708.0,-1106.0,-308.0,-707.0,-1105.0,-312.0,-711.0,-1101.0
-314,-719.0,-1089.0,-311.0,-708.0,-1105.0,-308.0,-707.0,-1105.0,-312.0,-710.0,-1099.0
-315,-720.0,-1087.0,-311.0,-708.0,-1105.0,-306.0,-707.0,-1105.0,-311.0,-710.0,-1098.0
-316,-720.0,-1086.0,-311.0,-708.0,-1105.0,-308.0,-708.0,-1105.0,-311.0,-710.0,-1097.0
-317,-721.0,-1085.0,-310.0,-708.0,-1105.0,-308.0,-708.0,-1105.0,-311.0,-709.0,-1095.0
-318,-721.0,-1084.0,-310.0,-707.0,-1105.0,-308.0,-708.0,-1105.0,-310.0,-708.0,-1094.0
-319,-723.0,-1082.0,-310.0,-707.0,-1105.0,-309.0,-708.0,-1105.0,-310.0,-708.0,-1093.0
-319,-721.0,-1081.0,-310.0,-707.0,-1104.0,-309.0,-708.0,-1106.0,-310.0,-707.0,-1091.0
-320,-721.0,-1079.0,-309.0,-707.0,-1104.0,-309.0,-709.0,-1106.0,-310.0,-706.0,-1089.0
-320,-720.0,-1081.0,-309.0,-707.0,-1104.0,-309.0,-709.0,-1106.0,-309.0,-705.0,-1088.0
-321,-719.0,-1081.0,-309.0,-707.0,-1104.0,-309.0,-709.0,-1106.0,-309.0,-704.0,-1086.0
-321,-719.0,-1082.0,-309.0,-707.0,-1104.0,-309.0,-710.0,-1107.0,-309.0,-702.0,-1084.0
-321,-718.0,-1083.0,-309.0,-707.0,-1104.0,-309.0,-710.0,-1107.0,-309.0,-701.0,-1082.0
-323,-716.0,-1084.0,-309.0,-707.0,-1104.0,-309.0,-710.0,-1107.0,-309.0,-700.0,-1081.0
-321,-715.0,-1085.0,-309.0,-707.0,-1104.0,-309.0,-710.0,-1107.0,-309.0,-699.0,-1079.0
-321,-713.0,-1087.0,-309.0,-707.0,-1104.0,-309.0,-710.0,-1108.0,-309.0,-698.0,-1077.0
-320,-712.0,-1089.0,-308.0,-707.0,-1104.0,-309.0,-711.0,-1109.0,-309.0,-696.0,-1076.0
-320,-711.0,-1091.0,-308.0,-707.0,-1104.0,-309.0,-711.0,-1108.0,-309.0,-695.0,-1074.0
-319,-710.0,-1093.0,-308.0,-707.0,-1104.0,-309.0,-711.0,-1107.0,-310.0,-693.0,-1073.0
-317,-709.0,-1095.0,-306.0,-707.0,-1104.0,-309.0,-711.0,-1107.0,-310.0,-692.0,-1072.0
-316,-708.0,-1098.0,-308.0,-707.0,-1104.0,-309.0,-711.0,-1107.0,-310.0,-690.0,-1070.0
-315,-707.0,-1100.0,-308.0,-707.0,-1104.0,-309.0,-711.0,-1107.0,-310.0,-688.0,-1069.0
-313,-706.0,-1102.0,-308.0,-707.0,-1104.0,-309.0,-711.0,-1106.0,-311.0,-687.0,-1068.0
-312,-706.0,-1104.0,-309.0,-707.0,-1104.0,-309.0,-711.0,-1106.0,-311.0,-685.0,-1068.0
-311,-705.0,-1105.0,-309.0,-707.0,-1104.0,-309.0,-711.0,-1106.0,-311.0,-684.0,-1067.0
-310,-705.0,-1107.0,-309.0,-707.0,-1104.0,-310.0,-711.0,-1105.0,-311.0,-683.0,-1065.0
-309,-704.0,-1108.0,-309.0,-707.0,-1104.0,-311.0,-711.0,-1105.0,-312.0,-682.0,-1067.0
-308,-704.0,-1109.0,-309.0,-708.0,-1105.0,-312.0,-712.0,-1105.0,-311.0,-681.0,-1068.0
-308,-704.0,-1110.0,-310.0,-708.0,-1105.0,-313.0,-712.0,-1104.0,-311.0,-679.0,-1069.0
-307,-704.0,-1110.0,-310.0,-708.0,-1105.0,-314.0,-713.0,-1103.0,-311.0,-678.0,-1070.0
-307,-703.0,-1111.0,-310.0,-708.0,-1105.0,-315.0,-713.0,-1104.0,-311.0,-677.0,-1072.0
-306,-703.0,-1112.0,-311.0,-708.0,-1105.0,-316.0,-714.0,-1105.0,-310.0,-676.0,-1074.0
-306,-702.0,-1112.0,-311.0,-709.0,-1105.0,-317.0,-714.0,-1105.0,-310.0,-675.0,-1076.0
-306,-703.0,-1112.0,-311.0,-709.0,-1106.0,-317.0,-715.0,-1105.0,-309.0,-674.0,-1078.0
-306,-703.0,-1113.0,-311.0,-709.0,-1106.0,-318.0,-715.0,-1106.0,-308.0,-673.0,-1081.0
-306,-703.0,-1112.0,-311.0,-709.0,-1106.0,-320.0,-715.0,-1106.0,-308.0,-672.0,-1083.0
-306,-704.0,-1112.0,-311.0,-709.0,-1106.0,-318.0,-715.0,-1107.0,-307.0,-671.0,-1085.0
-306,-704.0,-1112.0,-311.0,-709.0,-1106.0,-317.0,-715.0,-1107.0,-306.0,-670.0,-1088.0
-305,-704.0,-1112.0,-311.0,-709.0,-1106.0,-317.0,-715.0,-1108.0,-305.0,-667.0,-1090.0
-303,-704.0,-1111.0,-311.0,-710.0,-1106.0,-316.0,-715.0,-1108.0,-305.0,-669.0,-1092.0
-305,-705.0,-1111.0,-311.0,-710.0,-1106.0,-315.0,-715.0,-1109.0,-304.0,-670.0,-1095.0
-306,-705.0,-1111.0,-311.0,-710.0,-1107.0,-314.0,-715.0,-1110.0,-303.0,-671.0,-1096.0
-306,-705.0,-1111.0,-311.0,-710.0,-1107.0,-314.0,-715.0,-1111.0,-303.0,-672.0,-1098.0
-306,-705.0,-1111.0,-312.0,-711.0,-1107.0,-313.0,-715.0,-1111.0,-301.0,-673.0,-1100.0
-306,-705.0,-1110.0,-312.0,-710.0,-1107.0,-312.0,-716.0,-1112.0,-303.0,-675.0,-1101.0
-306,-705.0,-1110.0,-312.0,-710.0,-1107.0,-311.0,-715.0,-1112.0,-303.0,-677.0,-1102.0
-306,-707.0,-1110.0,-312.0,-710.0,-1108.0,-311.0,-715.0,-1113.0,-303.0,-679.0,-1102.0
-306,-706.0,-1109.0,-313.0,-710.0,-1107.0,-310.0,-715.0,-1113.0,-304.0,-682.0,-1103.0
-306,-705.0,-1109.0,-312.0,-709.0,-1107.0,-310.0,-715.0,-1113.0,-305.0,-685.0,-1104.0
-306,-705.0,-1109.0,-312.0,-709.0,-1107.0,-310.0,-715.0,-1113.0,-306.0,-687.0,-1104.0
-306,-705.0,-1109.0,-312.0,-709.0,-1107.0,-309.0,-715.0,-1113.0,-307.0,-690.0,-1104.0
-306,-704.0,-1110.0,-312.0,-709.0,-1107.0,-309.0,-715.0,-1114.0,-308.0,-693.0,-1104.0
-306,-705.0,-1110.0,-311.0,-709.0,-1106.0,-309.0,-715.0,-1114.0,-308.0,-695.0,-1105.0
-305,-705.0,-1112.0,-311.0,-708.0,-1106.0,-309.0,-715.0,-1114.0,-309.0,-697.0,-1105.0
-305,-705.0,-1111.0,-311.0,-708.0,-1105.0,-309.0,-715.0,-1114.0,-309.0,-699.0,-1105.0
-305,-706.0,-1110.0,-310.0,-707.0,-1105.0,-309.0,-715.0,-1116.0,-310.0,-701.0,-1105.0
-304,-706.0,-1110.0,-310.0,-707.0,-1104.0,-309.0,-714.0,-1114.0,-310.0,-703.0,-1105.0
-302,-707.0,-1109.0,-309.0,-707.0,-1104.0,-308.0,-712.0,-1112.0,-311.0,-704.0,-1105.0
-304,-707.0,-1109.0,-309.0,-707.0,-1103.0,-307.0,-710.0,-1111.0,-311.0,-705.0,-1105.0
-304,-708.0,-1108.0,-309.0,-706.0,-1103.0,-303.0,-708.0,-1109.0,-311.0,-706.0,-1105.0
-305,-708.0,-1107.0,-308.0,-706.0,-1103.0,-310.0,-706.0,-1107.0,-311.0,-707.0,-1105.0
-305,-709.0,-1106.0,-308.0,-705.0,-1102.0,-316.0,-714.0,-1106.0,-311.0,-707.0,-1106.0
-306,-710.0,-1106.0,-307.0,-705.0,-1102.0,-326.0,-723.0,-1110.0,-311.0,-708.0,-1105.0
-306,-709.0,-1105.0,-307.0,-705.0,-1101.0,-345.0,-741.0,-1116.0,-311.0,-709.0,-1105.0
-307,-709.0,-1105.0,-306.0,-705.0,-1101.0,-363.0,-758.0,-1125.0,-312.0,-709.0,-1105.0
-307,-708.0,-1105.0,-306.0,-704.0,-1101.0,-382.0,-787.0,-1144.0,-312.0,-709.0,-1105.0
-308,-708.0,-1103.0,-304.0,-704.0,-1100.0,-404.0,-806.0,-1159.0,-312.0,-710.0,-1105.0
-308,-708.0,-1105.0,-306.0,-703.0,-1100.0,-424.0,-830.0,-1171.0,-312.0,-710.0,-1105.0
-308,-708.0,-1105.0,-306.0,-704.0,-1098.0,-443.0,-853.0,-1188.0,-313.0,-710.0,-1105.0
-308,-707.0,-1105.0,-307.0,-704.0,-1100.0,-458.0,-879.0,-1208.0,-312.0,-711.0,-1105.0
-310,-707.0,-1105.0,-307.0,-704.0,-1100.0,-469.0,-899.0,-1223.0,-312.0,-711.0,-1105.0
-308,-707.0,-1106.0,-307.0,-705.0,-1100.0,-479.0,-911.0,-1231.0,-312.0,-711.0,-1104.0
-308,-706.0,-1107.0,-308.0,-705.0,-1101.0,-499.0,-919.0,-1236.0,-312.0,-711.0,-1104.0
-308,-706.0,-1108.0,-308.0,-706.0,-1102.0,-488.0,-934.0,-1243.0,-311.0,-711.0,-1103.0
-307,-706.0,-1109.0,-309.0,-707.0,-1103.0,-483.0,-945.0,-1249.0,-311.0,-712.0,-1103.0
-305,-706.0,-1110.0,-310.0,-708.0,-1104.0,-475.0,-935.0,-1242.0,-311.0,-711.0,-1102.0
-304,-706.0,-1111.0,-311.0,-709.0,-1105.0,-463.0,-929.0,-1238.0,-311.0,-711.0,-1102.0
-302,-706.0,-1113.0,-312.0,-710.0,-1106.0,-452.0,-920.0,-1233.0,-311.0,-711.0,-1102.0
-300,-706.0,-1114.0,-313.0,-711.0,-1107.0,-438.0,-904.0,-1226.0,-310.0,-711.0,-1101.0
-298,-706.0,-1116.0,-314.0,-711.0,-1108.0,-424.0,-885.0,-1219.0,-310.0,-711.0,-1101.0
-296,-706.0,-1118.0,-314.0,-712.0,-1109.0,-412.0,-868.0,-1210.0,-310.0,-710.0,-1099.0
-295,-706.0,-1119.0,-315.0,-714.0,-1109.0,-398.0,-850.0,-1201.0,-310.0,-710.0,-1101.0
-294,-705.0,-1121.0,-315.0,-712.0,-1110.0,-384.0,-826.0,-1191.0,-309.0,-709.0,-1101.0
-294,-705.0,-1121.0,-315.0,-712.0,-1110.0,-373.0,-806.0,-1180.0,-309.0,-709.0,-1102.0
-294,-705.0,-1122.0,-315.0,-713.0,-1110.0,-361.0,-787.0,-1171.0,-308.0,-708.0,-1102.0
-294,-705.0,-1123.0,-316.0,-713.0,-1110.0,-351.0,-774.0,-1161.0,-308.0,-707.0,-1102.0
-292,-704.0,-1124.0,-315.0,-713.0,-1111.0,-340.0,-759.0,-1151.0,-307.0,-706.0,-1103.0
-294,-704.0,-1123.0,-315.0,-714.0,-1110.0,-331.0,-746.0,-1143.0,-307.0,-706.0,-1104.0
-294,-703.0,-1122.0,-315.0,-713.0,-1110.0,-324.0,-736.0,-1135.0,-306.0,-706.0,-1104.0
-294,-703.0,-1122.0,-315.0,-713.0,-1110.0,-315.0,-725.0,-1127.0,-306.0,-705.0,-1105.0
-294,-703.0,-1122.0,-314.0,-713.0,-1110.0,-309.0,-715.0,-1121.0,-305.0,-705.0,-1106.0
-294,-703.0,-1124.0,-312.0,-712.0,-1109.0,-305.0,-710.0,-1116.0,-305.0,-705.0,-1106.0
-295,-703.0,-1123.0,-311.0,-710.0,-1107.0,-301.0,-706.0,-1112.0,-304.0,-704.0,-1106.0
-295,-703.0,-1122.0,-308.0,-707.0,-1103.0,-299.0,-703.0,-1109.0,-303.0,-704.0,-1106.0
-297,-702.0,-1120.0,-305.0,-702.0,-1098.0,-297.0,-700.0,-1108.0,-302.0,-703.0,-1106.0
-300,-699.0,-1118.0,-298.0,-699.0,-1094.0,-297.0,-699.0,-1106.0,-300.0,-703.0,-1106.0
-303,-702.0,-1115.0,-303.0,-696.0,-1089.0,-296.0,-697.0,-1105.0,-302.0,-701.0,-1107.0
-308,-703.0,-1111.0,-307.0,-692.0,-1082.0,-295.0,-695.0,-1104.0,-303.0,-703.0,-1107.0
-313,-700.0,-1105.0,-313.0,-685.0,-1076.0,-294.0,-695.0,-1103.0,-304.0,-703.0,-1109.0
-322,-697.0,-1101.0,-320.0,-689.0,-1071.0,-294.0,-694.0,-1103.0,-305.0,-704.0,-1107.0
-329,-691.0,-1097.0,-330.0,-691.0,-1066.0,-293.0,-693.0,-1102.0,-306.0,-704.0,-1107.0
-335,-686.0,-1088.0,-341.0,-693.0,-1064.0,-293.0,-692.0,-1102.0,-308.0,-705.0,-1106.0
-342,-679.0,-1095.0,-350.0,-697.0,-1062.0,-293.0,-691.0,-1102.0,-309.0,-706.0,-1105.0
-349,-671.0,-1099.0,-357.0,-700.0,-1061.0,-292.0,-690.0,-1101.0,-311.0,-707.0,-1105.0
-353,-663.0,-1102.0,-364.0,-703.0,-1057.0,-292.0,-690.0,-1101.0,-312.0,-709.0,-1104.0
-356,-654.0,-1108.0,-370.0,-706.0,-1059.0,-292.0,-689.0,-1101.0,-314.0,-711.0,-1103.0
-359,-648.0,-1114.0,-374.0,-709.0,-1060.0,-292.0,-688.0,-1100.0,-315.0,-713.0,-1103.0
-362,-642.0,-1119.0,-377.0,-712.0,-1063.0,-292.0,-687.0,-1100.0,-316.0,-715.0,-1102.0
-358,-637.0,-1124.0,-380.0,-716.0,-1066.0,-291.0,-686.0,-1099.0,-317.0,-717.0,-1101.0
-355,-630.0,-1129.0,-382.0,-719.0,-1069.0,-291.0,-685.0,-1099.0,-317.0,-718.0,-1101.0
-350,-635.0,-1134.0,-383.0,-722.0,-1073.0,-291.0,-684.0,-1098.0,-318.0,-719.0,-1100.0
-343,-637.0,-1138.0,-386.0,-725.0,-1077.0,-290.0,-683.0,-1097.0,-318.0,-720.0,-1099.0
-337,-639.0,-1143.0,-383.0,-729.0,-1082.0,-290.0,-681.0,-1096.0,-319.0,-721.0,-1097.0
-332,-641.0,-1147.0,-381.0,-731.0,-1086.0,-290.0,-680.0,-1096.0,-319.0,-721.0,-1095.0
-325,-643.0,-1152.0,-377.0,-733.0,-1090.0,-289.0,-679.0,-1095.0,-320.0,-722.0,-1093.0
-320,-645.0,-1156.0,-372.0,-736.0,-1093.0,-289.0,-678.0,-1094.0,-320.0,-722.0,-1091.0
-315,-646.0,-1160.0,-368.0,-733.0,-1097.0,-289.0,-676.0,-1094.0,-321.0,-722.0,-1085.0
-312,-648.0,-1166.0,-362.0,-731.0,-1099.0,-288.0,-675.0,-1093.0,-321.0,-723.0,-1089.0
-309,-650.0,-1162.0,-354.0,-729.0,-1102.0,-288.0,-673.0,-1091.0,-323.0,-723.0,-1093.0
-308,-653.0,-1159.0,-347.0,-726.0,-1103.0,-287.0,-671.0,-1090.0,-321.0,-725.0,-1100.0
-307,-658.0,-1155.0,-341.0,-723.0,-1105.0,-286.0,-669.0,-1089.0,-319.0,-723.0,-1107.0
-306,-664.0,-1151.0,-333.0,-720.0,-1106.0,-286.0,-667.0,-1087.0,-317.0,-723.0,-1115.0
-304,-671.0,-1146.0,-328.0,-718.0,-1106.0,-285.0,-665.0,-1086.0,-312.0,-722.0,-1125.0
-303,-678.0,-1141.0,-324.0,-715.0,-1107.0,-284.0,-662.0,-1084.0,-307.0,-720.0,-1136.0
-302,-685.0,-1134.0,-319.0,-713.0,-1108.0,-284.0,-660.0,-1082.0,-298.0,-716.0,-1143.0
-301,-691.0,-1129.0,-315.0,-712.0,-1108.0,-283.0,-657.0,-1081.0,-289.0,-710.0,-1147.0
-301,-696.0,-1125.0,-313.0,-711.0,-1108.0,-282.0,-655.0,-1079.0,-280.0,-704.0,-1153.0
-298,-699.0,-1122.0,-312.0,-711.0,-1108.0,-281.0,-652.0,-1077.0,-272.0,-699.0,-1157.0
-301,-701.0,-1119.0,-311.0,-711.0,-1108.0,-280.0,-650.0,-1075.0,-262.0,-694.0,-1157.0
-301,-703.0,-1117.0,-310.0,-711.0,-1110.0,-279.0,-647.0,-1073.0,-254.0,-687.0,-1157.0
-301,-704.0,-1116.0,-310.0,-711.0,-1109.0,-278.0,-645.0,-1071.0,-247.0,-683.0,-1157.0
-301,-704.0,-1116.0,-309.0,-710.0,-1108.0,-277.0,-642.0,-1069.0,-243.0,-678.0,-1158.0
-300,-705.0,-1115.0,-309.0,-710.0,-1108.0,-276.0,-641.0,-1068.0,-235.0,-682.0,-1160.0
-298,-706.0,-1115.0,-308.0,-709.0,-1108.0,-275.0,-638.0,-1066.0,-241.0,-684.0,-1162.0
-300,-706.0,-1115.0,-307.0,-709.0,-1107.0,-274.0,-637.0,-1064.0,-246.0,-687.0,-1167.0
-300,-706.0,-1114.0,-307.0,-708.0,-1107.0,-274.0,-635.0,-1062.0,-251.0,-690.0,-1163.0
-301,-706.0,-1114.0,-306.0,-708.0,-1107.0,-273.0,-634.0,-1061.0,-256.0,-694.0,-1159.0
-302,-706.0,-1113.0,-306.0,-707.0,-1107.0,-271.0,-633.0,-1060.0,-263.0,-698.0,-1154.0
-303,-706.0,-1113.0,-305.0,-707.0,-1107.0,-273.0,-632.0,-1058.0,-267.0,-704.0,-1148.0
-304,-706.0,-1112.0,-305.0,-707.0,-1107.0,-273.0,-629.0,-1057.0,-272.0,-709.0,-1141.0
-304,-706.0,-1111.0,-304.0,-707.0,-1107.0,-274.0,-632.0,-1056.0,-274.0,-715.0,-1133.0
-305,-706.0,-1111.0,-304.0,-707.0,-1107.0,-275.0,-633.0,-1053.0,-277.0,-723.0,-1125.0
-305,-706.0,-1110.0,-304.0,-706.0,-1107.0,-276.0,-635.0,-1055.0,-279.0,-730.0,-1118.0
-306,-706.0,-1110.0,-303.0,-706.0,-1107.0,-278.0,-637.0,-1056.0,-281.0,-735.0,-1113.0
-306,-706.0,-1109.0,-303.0,-706.0,-1107.0,-280.0,-640.0,-1057.0,-284.0,-740.0,-1110.0
-306,-707.0,-1109.0,-302.0,-705.0,-1107.0,-282.0,-643.0,-1059.0,-289.0,-744.0,-1110.0
-306,-707.0,-1108.0,-301.0,-705.0,-1107.0,-284.0,-647.0,-1060.0,-294.0,-746.0,-1112.0
-306,-707.0,-1108.0,-301.0,-705.0,-1107.0,-286.0,-651.0,-1062.0,-298.0,-750.0,-1113.0
-305,-708.0,-1108.0,-300.0,-704.0,-1106.0,-289.0,-655.0,-1065.0,-302.0,-745.0,-1115.0
-305,-709.0,-1107.0,-300.0,-704.0,-1106.0,-291.0,-659.0,-1068.0,-307.0,-743.0,-1118.0
-304,-709.0,-1107.0,-299.0,-703.0,-1106.0,-294.0,-664.0,-1071.0,-309.0,-740.0,-1119.0
-304,-710.0,-1106.0,-298.0,-703.0,-1106.0,-296.0,-668.0,-1074.0,-309.0,-736.0,-1120.0
-304,-710.0,-1105.0,-297.0,-702.0,-1106.0,-299.0,-673.0,-1077.0,-307.0,-732.0,-1122.0
-303,-711.0,-1104.0,-296.0,-702.0,-1106.0,-300.0,-678.0,-1080.0,-306.0,-729.0,-1122.0
-301,-712.0,-1104.0,-294.0,-701.0,-1105.0,-303.0,-682.0,-1084.0,-303.0,-727.0,-1123.0
-303,-712.0,-1102.0,-293.0,-700.0,-1105.0,-304.0,-686.0,-1087.0,-301.0,-725.0,-1125.0
-304,-713.0,-1101.0,-292.0,-699.0,-1104.0,-305.0,-690.0,-1091.0,-299.0,-723.0,-1123.0
-304,-713.0,-1099.0,-290.0,-698.0,-1103.0,-307.0,-693.0,-1093.0,-297.0,-722.0,-1122.0
-305,-714.0,-1098.0,-289.0,-697.0,-1103.0,-308.0,-697.0,-1096.0,-295.0,-721.0,-1122.0
-306,-714.0,-1096.0,-287.0,-696.0,-1102.0,-308.0,-700.0,-1098.0,-293.0,-721.0,-1121.0
-307,-715.0,-1095.0,-286.0,-695.0,-1102.0,-309.0,-701.0,-1100.0,-292.0,-721.0,-1119.0
-308,-716.0,-1093.0,-284.0,-694.0,-1101.0,-309.0,-703.0,-1102.0,-291.0,-720.0,-1118.0
-308,-717.0,-1091.0,-282.0,-693.0,-1101.0,-309.0,-705.0,-1103.0,-291.0,-720.0,-1117.0
-309,-718.0,-1089.0,-281.0,-691.0,-1100.0,-309.0,-706.0,-1105.0,-288.0,-720.0,-1116.0
-309,-719.0,-1088.0,-279.0,-690.0,-1100.0,-309.0,-707.0,-1106.0,-291.0,-719.0,-1115.0
-309,-720.0,-1086.0,-277.0,-689.0,-1099.0,-309.0,-708.0,-1107.0,-292.0,-719.0,-1115.0
-309,-721.0,-1085.0,-276.0,-688.0,-1098.0,-309.0,-708.0,-1107.0,-293.0,-719.0,-1115.0
-309,-723.0,-1083.0,-274.0,-686.0,-1097.0,-309.0,-709.0,-1108.0,-294.0,-719.0,-1116.0
-309,-724.0,-1082.0,-273.0,-685.0,-1097.0,-309.0,-709.0,-1108.0,-295.0,-718.0,-1116.0
-309,-726.0,-1080.0,-271.0,-684.0,-1096.0,-309.0,-709.0,-1109.0,-295.0,-718.0,-1116.0
-310,-727.0,-1079.0,-270.0,-683.0,-1095.0,-309.0,-709.0,-1110.0,-296.0,-718.0,-1117.0
-310,-728.0,-1078.0,-268.0,-681.0,-1095.0,-309.0,-709.0,-1109.0,-296.0,-718.0,-1117.0
-310,-730.0,-1077.0,-267.0,-681.0,-1094.0,-309.0,-709.0,-1109.0,-296.0,-718.0,-1119.0
-310,-730.0,-1076.0,-267.0,-680.0,-1093.0,-309.0,-709.0,-1108.0,-295.0,-717.0,-1117.0
-311,-731.0,-1075.0,-265.0,-679.0,-1092.0,-309.0,-709.0,-1108.0,-294.0,-717.0,-1117.0
-311,-731.0,-1074.0,-263.0,-678.0,-1092.0,-309.0,-709.0,-1108.0,-292.0,-717.0,-1116.0
-312,-733.0,-1073.0,-265.0,-678.0,-1091.0,-309.0,-709.0,-1108.0,-291.0,-716.0,-1115.0
-313,-731.0,-1073.0,-265.0,-676.0,-1091.0,-309.0,-709.0,-1108.0,-290.0,-715.0,-1115.0
-314,-731.0,-1072.0,-266.0,-678.0,-1091.0,-309.0,-709.0,-1108.0,-288.0,-715.0,-1114.0
-314,-730.0,-1070.0,-267.0,-678.0,-1091.0,-309.0,-708.0,-1107.0,-287.0,-714.0,-1113.0
-315,-729.0,-1072.0,-268.0,-678.0,-1090.0,-309.0,-708.0,-1107.0,-286.0,-713.0,-1112.0
-316,-727.0,-1073.0,-270.0,-679.0,-1089.0,-309.0,-708.0,-1107.0,-285.0,-711.0,-1110.0
-317,-726.0,-1074.0,-272.0,-680.0,-1090.0,-309.0,-708.0,-1107.0,-284.0,-710.0,-1109.0
-317,-724.0,-1075.0,-274.0,-681.0,-1090.0,-309.0,-708.0,-1107.0,-283.0,-709.0,-1107.0
-318,-722.0,-1077.0,-276.0,-682.0,-1091.0,-309.0,-708.0,-1107.0,-282.0,-708.0,-1105.0
-318,-720.0,-1078.0,-279.0,-684.0,-1091.0,-309.0,-708.0,-1107.0,-282.0,-706.0,-1103.0
-319,-718.0,-1080.0,-281.0,-686.0,-1092.0,-309.0,-708.0,-1107.0,-281.0,-705.0,-1102.0
-320,-716.0,-1082.0,-284.0,-687.0,-1093.0,-309.0,-708.0,-1107.0,-281.0,-703.0,-1099.0
-321,-714.0,-1084.0,-287.0,-689.0,-1094.0,-309.0,-708.0,-1104.0,-279.0,-702.0,-1097.0
-322,-711.0,-1085.0,-290.0,-691.0,-1095.0,-309.0,-708.0,-1106.0,-281.0,-701.0,-1096.0
-323,-709.0,-1087.0,-293.0,-693.0,-1096.0,-309.0,-708.0,-1107.0,-281.0,-699.0,-1094.0
-324,-707.0,-1088.0,-295.0,-695.0,-1097.0,-310.0,-708.0,-1107.0,-282.0,-698.0,-1093.0
-324,-705.0,-1089.0,-298.0,-696.0,-1098.0,-310.0,-706.0,-1107.0,-282.0,-697.0,-1092.0
-325,-703.0,-1091.0,-300.0,-698.0,-1099.0,-309.0,-708.0,-1107.0,-283.0,-695.0,-1091.0
-327,-702.0,-1092.0,-302.0,-700.0,-1100.0,-309.0,-708.0,-1107.0,-283.0,-694.0,-1090.0
-325,-700.0,-1093.0,-304.0,-701.0,-1101.0,-309.0,-708.0,-1107.0,-284.0,-693.0,-1089.0
-325,-700.0,-1094.0,-305.0,-702.0,-1102.0,-309.0,-708.0,-1107.0,-284.0,-692.0,-1088.0
-324,-699.0,-1096.0,-306.0,-704.0,-1102.0,-309.0,-708.0,-1107.0,-285.0,-690.0,-1087.0
-323,-698.0,-1097.0,-308.0,-705.0,-1103.0,-309.0,-708.0,-1109.0,-285.0,-689.0,-1085.0
-322,-696.0,-1099.0,-308.0,-705.0,-1104.0,-308.0,-708.0,-1107.0,-286.0,-688.0,-1087.0
-321,-698.0,-1100.0,-309.0,-706.0,-1104.0,-309.0,-708.0,-1107.0,-286.0,-686.0,-1087.0
-320,-698.0,-1101.0,-309.0,-706.0,-1105.0,-309.0,-708.0,-1106.0,-286.0,-685.0,-1089.0
-319,-699.0,-1101.0,-309.0,-706.0,-1105.0,-309.0,-708.0,-1106.0,-286.0,-684.0,-1090.0
-318,-699.0,-1102.0,-311.0,-706.0,-1105.0,-309.0,-708.0,-1105.0,-286.0,-682.0,-1091.0
-317,-699.0,-1103.0,-309.0,-706.0,-1105.0,-309.0,-708.0,-1105.0,-285.0,-681.0,-1093.0
-316,-699.0,-1103.0,-309.0,-706.0,-1106.0,-309.0,-708.0,-1104.0,-285.0,-680.0,-1095.0
-316,-700.0,-1103.0,-309.0,-706.0,-1105.0,-309.0,-708.0,-1104.0,-285.0,-679.0,-1097.0
-316,-700.0,-1103.0,-309.0,-706.0,-1105.0,-310.0,-709.0,-1104.0,-284.0,-678.0,-1099.0
-316,-700.0,-1103.0,-309.0,-706.0,-1105.0,-311.0,-709.0,-1103.0,-284.0,-677.0,-1101.0
-315,-700.0,-1103.0,-309.0,-706.0,-1105.0,-312.0,-709.0,-1103.0,-283.0,-676.0,-1103.0
-315,-700.0,-1103.0,-309.0,-706.0,-1104.0,-313.0,-710.0,-1101.0,-283.0,-675.0,-1105.0
-315,-700.0,-1103.0,-308.0,-706.0,-1104.0,-314.0,-711.0,-1103.0,-283.0,-673.0,-1107.0
-315,-701.0,-1103.0,-308.0,-706.0,-1104.0,-315.0,-711.0,-1103.0,-281.0,-675.0,-1108.0
-315,-701.0,-1104.0,-308.0,-706.0,-1104.0,-316.0,-712.0,-1104.0,-283.0,-676.0,-1110.0
-315,-701.0,-1104.0,-308.0,-706.0,-1104.0,-317.0,-713.0,-1104.0,-283.0,-677.0,-1111.0
-314,-701.0,-1104.0,-308.0,-706.0,-1103.0,-318.0,-713.0,-1105.0,-283.0,-679.0,-1112.0
-314,-701.0,-1104.0,-308.0,-706.0,-1103.0,-318.0,-715.0,-1105.0,-284.0,-680.0,-1114.0
-313,-702.0,-1105.0,-308.0,-706.0,-1103.0,-320.0,-713.0,-1106.0,-284.0,-683.0,-1114.0
-312,-702.0,-1105.0,-307.0,-705.0,-1103.0,-318.0,-713.0,-1107.0,-285.0,-685.0,-1115.0
-312,-702.0,-1105.0,-307.0,-705.0,-1103.0,-318.0,-712.0,-1107.0,-286.0,-688.0,-1116.0
-311,-702.0,-1106.0,-307.0,-705.0,-1103.0,-317.0,-712.0,-1108.0,-287.0,-691.0,-1116.0
-311,-703.0,-1106.0,-307.0,-705.0,-1102.0,-316.0,-712.0,-1108.0,-288.0,-693.0,-1117.0
-310,-700.0,-1106.0,-305.0,-705.0,-1102.0,-315.0,-711.0,-1109.0,-290.0,-696.0,-1117.0
-310,-702.0,-1106.0,-307.0,-705.0,-1101.0,-314.0,-711.0,-1109.0,-291.0,-698.0,-1118.0
-310,-703.0,-1106.0,-307.0,-703.0,-1102.0,-313.0,-711.0,-1111.0,-292.0,-701.0,-1118.0
-310,-703.0,-1107.0,-307.0,-705.0,-1102.0,-313.0,-711.0,-1112.0,-293.0,-703.0,-1118.0
-310,-703.0,-1107.0,-307.0,-705.0,-1103.0,-312.0,-711.0,-1112.0,-293.0,-705.0,-1118.0
-310,-703.0,-1107.0,-308.0,-705.0,-1103.0,-312.0,-711.0,-1113.0,-294.0,-707.0,-1119.0
-310,-703.0,-1107.0,-308.0,-705.0,-1103.0,-311.0,-711.0,-1113.0,-295.0,-708.0,-1118.0
-310,-704.0,-1107.0,-308.0,-705.0,-1103.0,-311.0,-711.0,-1114.0,-295.0,-709.0,-1118.0
-309,-704.0,-1106.0,-308.0,-705.0,-1103.0,-311.0,-710.0,-1114.0,-296.0,-711.0,-1118.0
-309,-705.0,-1106.0,-308.0,-706.0,-1104.0,-311.0,-710.0,-1114.0,-296.0,-711.0,-1118.0
-308,-705.0,-1106.0,-309.0,-706.0,-1104.0,-310.0,-710.0,-1114.0,-297.0,-712.0,-1118.0
-308,-706.0,-1106.0,-309.0,-706.0,-1104.0,-310.0,-710.0,-1114.0,-297.0,-712.0,-1117.0
-308,-706.0,-1105.0,-309.0,-706.0,-1104.0,-310.0,-710.0,-1115.0,-298.0,-713.0,-1117.0
-308,-707.0,-1105.0,-309.0,-706.0,-1105.0,-310.0,-710.0,-1116.0,-299.0,-713.0,-1117.0
-308,-707.0,-1105.0,-309.0,-706.0,-1105.0,-310.0,-710.0,-1115.0,-299.0,-714.0,-1116.0
-309,-707.0,-1104.0,-309.0,-707.0,-1105.0,-309.0,-709.0,-1115.0,-300.0,-714.0,-1116.0
-309,-709.0,-1104.0,-309.0,-707.0,-1105.0,-309.0,-708.0,-1114.0,-300.0,-715.0,-1115.0
-309,-708.0,-1103.0,-310.0,-707.0,-1105.0,-308.0,-705.0,-1112.0,-301.0,-715.0,-1115.0
-310,-707.0,-1103.0,-310.0,-707.0,-1105.0,-305.0,-702.0,-1110.0,-301.0,-717.0,-1114.0
-310,-707.0,-1100.0,-310.0,-707.0,-1105.0,-309.0,-694.0,-1108.0,-302.0,-715.0,-1114.0
-311,-707.0,-1102.0,-310.0,-707.0,-1105.0,-314.0,-701.0,-1106.0,-302.0,-715.0,-1113.0
-311,-706.0,-1103.0,-310.0,-707.0,-1105.0,-323.0,-716.0,-1107.0,-303.0,-715.0,-1112.0
-313,-706.0,-1103.0,-310.0,-707.0,-1105.0,-338.0,-725.0,-1114.0,-303.0,-714.0,-1111.0
-312,-705.0,-1103.0,-311.0,-708.0,-1105.0,-353.0,-739.0,-1124.0,-304.0,-714.0,-1110.0
-311,-705.0,-1104.0,-311.0,-708.0,-1106.0,-369.0,-760.0,-1133.0,-305.0,-714.0,-1108.0
-311,-704.0,-1105.0,-311.0,-708.0,-1106.0,-390.0,-783.0,-1146.0,-305.0,-713.0,-1107.0
-310,-704.0,-1105.0,-311.0,-708.0,-1106.0,-412.0,-810.0,-1169.0,-306.0,-713.0,-1106.0
-310,-704.0,-1106.0,-311.0,-708.0,-1106.0,-436.0,-837.0,-1186.0,-306.0,-713.0,-1104.0
-309,-705.0,-1107.0,-311.0,-708.0,-1106.0,-455.0,-857.0,-1200.0,-307.0,-713.0,-1103.0
-308,-705.0,-1108.0,-311.0,-708.0,-1106.0,-469.0,-878.0,-1216.0,-307.0,-712.0,-1102.0
-307,-705.0,-1109.0,-311.0,-708.0,-1106.0,-479.0,-894.0,-1230.0,-308.0,-712.0,-1101.0
-305,-705.0,-1111.0,-312.0,-709.0,-1106.0,-487.0,-905.0,-1237.0,-309.0,-712.0,-1100.0
-303,-705.0,-1112.0,-311.0,-708.0,-1107.0,-501.0,-917.0,-1243.0,-309.0,-711.0,-1099.0
-301,-706.0,-1114.0,-311.0,-708.0,-1106.0,-486.0,-930.0,-1251.0,-309.0,-710.0,-1098.0
-300,-706.0,-1115.0,-311.0,-708.0,-1106.0,-479.0,-922.0,-1245.0,-310.0,-710.0,-1098.0
-298,-706.0,-1116.0,-311.0,-708.0,-1106.0,-470.0,-916.0,-1242.0,-310.0,-709.0,-1097.0
-297,-706.0,-1117.0,-311.0,-708.0,-1106.0,-460.0,-907.0,-1238.0,-311.0,-707.0,-1097.0
-296,-707.0,-1117.0,-311.0,-708.0,-1106.0,-449.0,-895.0,-1232.0,-311.0,-706.0,-1097.0
-295,-708.0,-1118.0,-311.0,-708.0,-1106.0,-437.0,-883.0,-1227.0,-311.0,-705.0,-1096.0
-295,-707.0,-1118.0,-311.0,-708.0,-1106.0,-425.0,-869.0,-1220.0,-311.0,-704.0,-1096.0
-295,-706.0,-1119.0,-311.0,-707.0,-1106.0,-413.0,-853.0,-1212.0,-311.0,-702.0,-1096.0
-294,-706.0,-1119.0,-310.0,-707.0,-1105.0,-400.0,-832.0,-1202.0,-311.0,-701.0,-1096.0
-294,-707.0,-1120.0,-310.0,-706.0,-1105.0,-386.0,-813.0,-1192.0,-311.0,-701.0,-1096.0
-294,-707.0,-1122.0,-309.0,-706.0,-1104.0,-372.0,-795.0,-1181.0,-311.0,-700.0,-1095.0
-293,-708.0,-1120.0,-308.0,-705.0,-1104.0,-360.0,-777.0,-1169.0,-311.0,-699.0,-1093.0
-291,-708.0,-1120.0,-308.0,-705.0,-1103.0,-349.0,-760.0,-1157.0,-311.0,-698.0,-1095.0
-293,-708.0,-1119.0,-307.0,-704.0,-1103.0,-337.0,-745.0,-1148.0,-311.0,-697.0,-1096.0
-295,-709.0,-1118.0,-307.0,-704.0,-1102.0,-328.0,-734.0,-1139.0,-312.0,-696.0,-1096.0
-297,-711.0,-1117.0,-307.0,-703.0,-1102.0,-319.0,-723.0,-1131.0,-312.0,-695.0,-1097.0
-300,-709.0,-1114.0,-307.0,-703.0,-1102.0,-313.0,-713.0,-1124.0,-313.0,-695.0,-1097.0
-305,-709.0,-1111.0,-306.0,-703.0,-1101.0,-309.0,-708.0,-1118.0,-314.0,-693.0,-1098.0
-312,-707.0,-1105.0,-306.0,-703.0,-1101.0,-305.0,-703.0,-1114.0,-315.0,-695.0,-1099.0
-318,-703.0,-1102.0,-304.0,-702.0,-1100.0,-302.0,-698.0,-1111.0,-317.0,-695.0,-1099.0
-326,-698.0,-1099.0,-306.0,-702.0,-1100.0,-300.0,-695.0,-1108.0,-318.0,-695.0,-1100.0
-332,-691.0,-1091.0,-306.0,-700.0,-1099.0,-299.0,-693.0,-1106.0,-319.0,-696.0,-1100.0
-339,-684.0,-1100.0,-306.0,-702.0,-1097.0,-298.0,-691.0,-1105.0,-321.0,-697.0,-1100.0
-345,-676.0,-1105.0,-307.0,-702.0,-1099.0,-297.0,-690.0,-1104.0,-322.0,-699.0,-1100.0
-349,-665.0,-1111.0,-307.0,-702.0,-1100.0,-296.0,-689.0,-1103.0,-323.0,-700.0,-1100.0
-352,-655.0,-1118.0,-307.0,-703.0,-1100.0,-295.0,-688.0,-1102.0,-324.0,-702.0,-1100.0
-355,-648.0,-1124.0,-308.0,-703.0,-1100.0,-295.0,-687.0,-1102.0,-325.0,-704.0,-1100.0
-359,-642.0,-1130.0,-309.0,-703.0,-1101.0,-295.0,-686.0,-1101.0,-325.0,-705.0,-1100.0
-354,-636.0,-1136.0,-310.0,-704.0,-1102.0,-294.0,-685.0,-1101.0,-326.0,-706.0,-1100.0
-351,-627.0,-1140.0,-310.0,-705.0,-1103.0,-294.0,-684.0,-1100.0,-326.0,-708.0,-1099.0
-346,-632.0,-1145.0,-312.0,-706.0,-1104.0,-293.0,-683.0,-1100.0,-326.0,-708.0,-1098.0
-340,-634.0,-1149.0,-312.0,-707.0,-1105.0,-293.0,-683.0,-1099.0,-327.0,-709.0,-1097.0
-334,-637.0,-1152.0,-313.0,-708.0,-1106.0,-293.0,-682.0,-1099.0,-326.0,-709.0,-1094.0
-329,-640.0,-1156.0,-314.0,-709.0,-1107.0,-292.0,-681.0,-1098.0,-326.0,-709.0,-1092.0
-322,-642.0,-1159.0,-315.0,-709.0,-1107.0,-292.0,-680.0,-1098.0,-326.0,-709.0,-1090.0
-317,-645.0,-1162.0,-315.0,-710.0,-1108.0,-292.0,-678.0,-1097.0,-326.0,-710.0,-1085.0
-312,-647.0,-1165.0,-315.0,-710.0,-1109.0,-292.0,-677.0,-1096.0,-325.0,-709.0,-1093.0
-309,-649.0,-1170.0,-316.0,-711.0,-1109.0,-291.0,-676.0,-1095.0,-324.0,-709.0,-1099.0
-307,-652.0,-1165.0,-316.0,-711.0,-1109.0,-291.0,-675.0,-1095.0,-322.0,-709.0,-1105.0
-306,-656.0,-1162.0,-316.0,-712.0,-1109.0,-291.0,-674.0,-1094.0,-319.0,-709.0,-1112.0
-305,-662.0,-1158.0,-317.0,-711.0,-1109.0,-290.0,-672.0,-1093.0,-315.0,-708.0,-1125.0
-304,-668.0,-1153.0,-317.0,-711.0,-1109.0,-290.0,-671.0,-1092.0,-308.0,-706.0,-1136.0
-303,-674.0,-1147.0,-318.0,-710.0,-1109.0,-289.0,-669.0,-1091.0,-297.0,-703.0,-1145.0
-302,-682.0,-1142.0,-317.0,-710.0,-1110.0,-289.0,-668.0,-1090.0,-291.0,-697.0,-1152.0
-301,-689.0,-1136.0,-317.0,-712.0,-1111.0,-288.0,-666.0,-1088.0,-282.0,-693.0,-1159.0
-300,-695.0,-1130.0,-316.0,-710.0,-1110.0,-287.0,-664.0,-1087.0,-275.0,-686.0,-1163.0
-299,-700.0,-1125.0,-315.0,-709.0,-1109.0,-287.0,-663.0,-1086.0,-267.0,-680.0,-1168.0
-298,-704.0,-1122.0,-313.0,-708.0,-1108.0,-286.0,-661.0,-1084.0,-258.0,-675.0,-1165.0
-298,-707.0,-1119.0,-311.0,-706.0,-1105.0,-286.0,-659.0,-1083.0,-250.0,-670.0,-1164.0
-298,-708.0,-1118.0,-308.0,-702.0,-1100.0,-285.0,-657.0,-1082.0,-245.0,-661.0,-1164.0
-296,-710.0,-1117.0,-306.0,-697.0,-1095.0,-284.0,-655.0,-1080.0,-239.0,-666.0,-1164.0
-298,-710.0,-1116.0,-301.0,-694.0,-1088.0,-284.0,-653.0,-1078.0,-232.0,-668.0,-1165.0
-298,-711.0,-1115.0,-308.0,-690.0,-1082.0,-283.0,-651.0,-1076.0,-239.0,-671.0,-1168.0
-298,-711.0,-1114.0,-314.0,-687.0,-1076.0,-282.0,-649.0,-1074.0,-243.0,-674.0,-1166.0
-298,-711.0,-1114.0,-319.0,-681.0,-1069.0,-281.0,-646.0,-1072.0,-248.0,-678.0,-1162.0
-299,-711.0,-1113.0,-327.0,-684.0,-1062.0,-280.0,-644.0,-1070.0,-254.0,-683.0,-1157.0
-299,-711.0,-1112.0,-339.0,-686.0,-1058.0,-279.0,-641.0,-1068.0,-262.0,-688.0,-1152.0
-300,-711.0,-1112.0,-347.0,-689.0,-1055.0,-278.0,-639.0,-1066.0,-267.0,-694.0,-1144.0
-301,-711.0,-1111.0,-354.0,-691.0,-1054.0,-277.0,-637.0,-1064.0,-272.0,-700.0,-1136.0
-301,-711.0,-1111.0,-361.0,-694.0,-1052.0,-276.0,-635.0,-1062.0,-276.0,-706.0,-1128.0
-301,-711.0,-1111.0,-367.0,-697.0,-1049.0,-275.0,-634.0,-1060.0,-279.0,-713.0,-1121.0
-301,-711.0,-1111.0,-372.0,-701.0,-1052.0,-275.0,-632.0,-1058.0,-281.0,-720.0,-1115.0
-301,-711.0,-1110.0,-375.0,-704.0,-1055.0,-274.0,-631.0,-1056.0,-284.0,-725.0,-1111.0
-301,-712.0,-1110.0,-378.0,-708.0,-1058.0,-272.0,-630.0,-1055.0,-288.0,-729.0,-1107.0
-302,-712.0,-1110.0,-379.0,-711.0,-1062.0,-274.0,-627.0,-1054.0,-292.0,-732.0,-1104.0
-302,-712.0,-1110.0,-383.0,-715.0,-1066.0,-275.0,-629.0,-1053.0,-297.0,-736.0,-1103.0
-302,-712.0,-1109.0,-381.0,-718.0,-1070.0,-276.0,-630.0,-1052.0,-302.0,-732.0,-1102.0
-302,-712.0,-1109.0,-380.0,-721.0,-1075.0,-276.0,-631.0,-1049.0,-306.0,-730.0,-1102.0
-303,-713.0,-1108.0,-377.0,-723.0,-1079.0,-278.0,-633.0,-1051.0,-310.0,-728.0,-1102.0
-303,-713.0,-1108.0,-373.0,-725.0,-1083.0,-279.0,-635.0,-1052.0,-314.0,-725.0,-1101.0
-303,-713.0,-1107.0,-369.0,-728.0,-1087.0,-281.0,-638.0,-1053.0,-317.0,-721.0,-1101.0
-304,-713.0,-1107.0,-363.0,-726.0,-1090.0,-283.0,-642.0,-1055.0,-318.0,-719.0,-1101.0
-304,-714.0,-1106.0,-357.0,-725.0,-1094.0,-285.0,-645.0,-1057.0,-319.0,-716.0,-1100.0
-305,-714.0,-1106.0,-351.0,-723.0,-1097.0,-288.0,-648.0,-1059.0,-319.0,-715.0,-1100.0
-305,-714.0,-1105.0,-346.0,-721.0,-1099.0,-291.0,-653.0,-1062.0,-319.0,-713.0,-1100.0
-305,-715.0,-1104.0,-339.0,-719.0,-1102.0,-294.0,-659.0,-1065.0,-319.0,-712.0,-1100.0
-305,-715.0,-1104.0,-332.0,-717.0,-1104.0,-296.0,-663.0,-1068.0,-319.0,-712.0,-1099.0
-305,-716.0,-1103.0,-327.0,-715.0,-1106.0,-298.0,-668.0,-1071.0,-319.0,-711.0,-1098.0
-305,-716.0,-1101.0,-323.0,-714.0,-1108.0,-300.0,-672.0,-1075.0,-319.0,-711.0,-1098.0
-306,-717.0,-1100.0,-319.0,-712.0,-1108.0,-302.0,-677.0,-1078.0,-319.0,-711.0,-1097.0
-306,-718.0,-1099.0,-316.0,-711.0,-1109.0,-304.0,-681.0,-1081.0,-319.0,-711.0,-1097.0
-307,-718.0,-1098.0,-314.0,-710.0,-1110.0,-306.0,-685.0,-1085.0,-319.0,-711.0,-1096.0
-308,-719.0,-1096.0,-313.0,-710.0,-1111.0,-307.0,-689.0,-1088.0,-319.0,-710.0,-1096.0
-308,-720.0,-1095.0,-312.0,-710.0,-1110.0,-308.0,-692.0,-1091.0,-319.0,-710.0,-1095.0
-309,-721.0,-1093.0,-311.0,-709.0,-1109.0,-310.0,-695.0,-1094.0,-319.0,-710.0,-1094.0
-309,-722.0,-1092.0,-311.0,-709.0,-1109.0,-310.0,-698.0,-1096.0,-319.0,-710.0,-1093.0
-310,-723.0,-1090.0,-310.0,-708.0,-1109.0,-311.0,-700.0,-1099.0,-319.0,-709.0,-1093.0
-310,-724.0,-1089.0,-310.0,-708.0,-1109.0,-311.0,-702.0,-1101.0,-319.0,-709.0,-1091.0
-310,-726.0,-1087.0,-309.0,-708.0,-1108.0,-312.0,-703.0,-1103.0,-319.0,-709.0,-1090.0
-310,-727.0,-1086.0,-309.0,-708.0,-1108.0,-312.0,-705.0,-1104.0,-319.0,-709.0,-1088.0
-310,-728.0,-1085.0,-309.0,-707.0,-1108.0,-313.0,-706.0,-1105.0,-319.0,-708.0,-1087.0
-310,-729.0,-1084.0,-309.0,-707.0,-1108.0,-312.0,-707.0,-1106.0,-319.0,-708.0,-1085.0
-310,-731.0,-1083.0,-308.0,-707.0,-1108.0,-312.0,-707.0,-1107.0,-320.0,-708.0,-1084.0
-310,-732.0,-1082.0,-308.0,-707.0,-1108.0,-311.0,-708.0,-1107.0,-320.0,-707.0,-1082.0
-310,-733.0,-1081.0,-308.0,-706.0,-1108.0,-311.0,-708.0,-1108.0,-320.0,-707.0,-1081.0
-311,-733.0,-1080.0,-307.0,-706.0,-1107.0,-311.0,-708.0,-1108.0,-320.0,-706.0,-1079.0
-311,-734.0,-1079.0,-307.0,-706.0,-1107.0,-311.0,-708.0,-1108.0,-321.0,-705.0,-1077.0
-311,-736.0,-1078.0,-307.0,-706.0,-1107.0,-310.0,-707.0,-1109.0,-321.0,-705.0,-1075.0
-312,-734.0,-1077.0,-306.0,-705.0,-1107.0,-310.0,-707.0,-1108.0,-321.0,-704.0,-1073.0
-312,-734.0,-1076.0,-306.0,-705.0,-1107.0,-310.0,-707.0,-1108.0,-322.0,-703.0,-1071.0
-313,-733.0,-1074.0,-306.0,-705.0,-1107.0,-310.0,-707.0,-1108.0,-322.0,-702.0,-1070.0
-313,-733.0,-1076.0,-305.0,-705.0,-1107.0,-309.0,-707.0,-1108.0,-323.0,-702.0,-1068.0
-314,-732.0,-1076.0,-305.0,-704.0,-1107.0,-309.0,-707.0,-1107.0,-323.0,-701.0,-1066.0
-315,-730.0,-1077.0,-304.0,-704.0,-1107.0,-309.0,-707.0,-1107.0,-323.0,-699.0,-1064.0
-315,-729.0,-1079.0,-303.0,-704.0,-1107.0,-309.0,-707.0,-1107.0,-324.0,-698.0,-1062.0
-317,-728.0,-1080.0,-303.0,-703.0,-1107.0,-309.0,-706.0,-1107.0,-324.0,-696.0,-1060.0
-315,-726.0,-1081.0,-302.0,-703.0,-1107.0,-309.0,-706.0,-1107.0,-324.0,-695.0,-1059.0
-315,-725.0,-1083.0,-301.0,-702.0,-1106.0,-309.0,-705.0,-1107.0,-325.0,-694.0,-1057.0
-314,-723.0,-1085.0,-300.0,-701.0,-1106.0,-307.0,-706.0,-1107.0,-325.0,-692.0,-1055.0
-314,-721.0,-1087.0,-299.0,-701.0,-1106.0,-309.0,-706.0,-1107.0,-326.0,-691.0,-1054.0
-313,-719.0,-1090.0,-298.0,-700.0,-1105.0,-309.0,-707.0,-1107.0,-326.0,-690.0,-1053.0
-312,-718.0,-1092.0,-297.0,-699.0,-1105.0,-309.0,-707.0,-1106.0,-326.0,-688.0,-1051.0
-311,-717.0,-1095.0,-295.0,-698.0,-1105.0,-309.0,-707.0,-1106.0,-327.0,-687.0,-1051.0
-309,-716.0,-1097.0,-294.0,-698.0,-1104.0,-309.0,-707.0,-1105.0,-327.0,-685.0,-1050.0
-308,-715.0,-1099.0,-293.0,-697.0,-1104.0,-309.0,-707.0,-1106.0,-327.0,-684.0,-1048.0
-307,-714.0,-1101.0,-291.0,-696.0,-1103.0,-309.0,-707.0,-1106.0,-328.0,-682.0,-1050.0
-306,-713.0,-1103.0,-289.0,-695.0,-1103.0,-310.0,-708.0,-1107.0,-327.0,-681.0,-1051.0
-304,-712.0,-1104.0,-288.0,-694.0,-1102.0,-310.0,-708.0,-1107.0,-327.0,-680.0,-1052.0
-303,-712.0,-1106.0,-286.0,-693.0,-1102.0,-310.0,-708.0,-1107.0,-327.0,-678.0,-1054.0
-303,-712.0,-1107.0,-285.0,-692.0,-1101.0,-310.0,-708.0,-1107.0,-327.0,-677.0,-1056.0
-301,-711.0,-1109.0,-283.0,-690.0,-1101.0,-310.0,-708.0,-1107.0,-326.0,-676.0,-1058.0
-301,-711.0,-1109.0,-282.0,-689.0,-1100.0,-310.0,-709.0,-1107.0,-325.0,-675.0,-1060.0
-301,-711.0,-1110.0,-280.0,-688.0,-1099.0,-310.0,-709.0,-1108.0,-325.0,-674.0,-1062.0
-300,-711.0,-1111.0,-279.0,-687.0,-1099.0,-310.0,-710.0,-1108.0,-324.0,-673.0,-1065.0
-300,-710.0,-1111.0,-277.0,-686.0,-1098.0,-310.0,-710.0,-1108.0,-323.0,-672.0,-1068.0
-300,-710.0,-1111.0,-276.0,-685.0,-1097.0,-310.0,-710.0,-1109.0,-321.0,-671.0,-1070.0
-300,-710.0,-1111.0,-274.0,-684.0,-1096.0,-310.0,-710.0,-1109.0,-320.0,-671.0,-1073.0
-300,-710.0,-1111.0,-273.0,-683.0,-1096.0,-311.0,-711.0,-1109.0,-319.0,-670.0,-1076.0
-300,-710.0,-1111.0,-272.0,-682.0,-1095.0,-311.0,-711.0,-1111.0,-317.0,-668.0,-1078.0
-300,-710.0,-1111.0,-271.0,-681.0,-1094.0,-311.0,-711.0,-1110.0,-316.0,-670.0,-1081.0
-300,-710.0,-1111.0,-270.0,-680.0,-1093.0,-311.0,-711.0,-1109.0,-315.0,-670.0,-1084.0
-300,-709.0,-1111.0,-268.0,-680.0,-1093.0,-311.0,-711.0,-1109.0,-314.0,-671.0,-1086.0
-299,-709.0,-1111.0,-270.0,-680.0,-1092.0,-311.0,-713.0,-1108.0,-313.0,-672.0,-1088.0
-298,-709.0,-1111.0,-270.0,-679.0,-1092.0,-311.0,-711.0,-1108.0,-312.0,-673.0,-1090.0
-299,-709.0,-1111.0,-271.0,-677.0,-1091.0,-311.0,-711.0,-1107.0,-312.0,-675.0,-1091.0
-299,-709.0,-1111.0,-272.0,-679.0,-1091.0,-311.0,-711.0,-1106.0,-312.0,-676.0,-1093.0
-300,-709.0,-1111.0,-273.0,-680.0,-1091.0,-311.0,-710.0,-1106.0,-312.0,-679.0,-1094.0
-300,-709.0,-1111.0,-275.0,-681.0,-1089.0,-312.0,-711.0,-1106.0,-312.0,-681.0,-1095.0
-300,-709.0,-1112.0,-276.0,-682.0,-1090.0,-312.0,-711.0,-1105.0,-313.0,-683.0,-1096.0
-300,-709.0,-1111.0,-278.0,-682.0,-1091.0,-313.0,-711.0,-1105.0,-313.0,-686.0,-1097.0
-300,-709.0,-1111.0,-281.0,-683.0,-1091.0,-314.0,-712.0,-1103.0,-313.0,-688.0,-1098.0
-300,-709.0,-1111.0,-283.0,-685.0,-1091.0,-315.0,-712.0,-1105.0,-314.0,-691.0,-1098.0
-300,-709.0,-1111.0,-285.0,-686.0,-1092.0,-316.0,-713.0,-1105.0,-314.0,-694.0,-1099.0
-300,-708.0,-1111.0,-288.0,-688.0,-1093.0,-317.0,-714.0,-1105.0,-315.0,-696.0,-1100.0
-301,-708.0,-1111.0,-291.0,-689.0,-1094.0,-318.0,-715.0,-1106.0,-315.0,-698.0,-1100.0
-301,-708.0,-1111.0,-293.0,-691.0,-1095.0,-320.0,-715.0,-1106.0,-315.0,-700.0,-1100.0
-301,-708.0,-1111.0,-296.0,-693.0,-1096.0,-320.0,-716.0,-1107.0,-315.0,-702.0,-1100.0
-301,-708.0,-1111.0,-298.0,-694.0,-1097.0,-321.0,-717.0,-1107.0,-315.0,-704.0,-1100.0
-301,-707.0,-1111.0,-300.0,-696.0,-1098.0,-321.0,-717.0,-1108.0,-316.0,-705.0,-1101.0
-301,-707.0,-1111.0,-302.0,-697.0,-1099.0,-323.0,-718.0,-1109.0,-315.0,-706.0,-1101.0
-302,-707.0,-1111.0,-304.0,-699.0,-1100.0,-321.0,-717.0,-1110.0,-315.0,-707.0,-1101.0
-302,-707.0,-1111.0,-305.0,-700.0,-1101.0,-321.0,-717.0,-1110.0,-315.0,-708.0,-1101.0
-302,-707.0,-1111.0,-306.0,-701.0,-1102.0,-320.0,-717.0,-1111.0,-315.0,-708.0,-1102.0
-302,-707.0,-1111.0,-308.0,-702.0,-1103.0,-319.0,-716.0,-1111.0,-315.0,-709.0,-1102.0
-302,-707.0,-1111.0,-308.0,-703.0,-1103.0,-319.0,-717.0,-1112.0,-315.0,-709.0,-1102.0
-303,-707.0,-1110.0,-309.0,-704.0,-1104.0,-318.0,-717.0,-1113.0,-314.0,-710.0,-1102.0
-303,-707.0,-1110.0,-309.0,-704.0,-1105.0,-317.0,-717.0,-1114.0,-314.0,-710.0,-1102.0
-303,-707.0,-1109.0,-310.0,-704.0,-1105.0,-317.0,-717.0,-1115.0,-314.0,-710.0,-1103.0
-304,-707.0,-1108.0,-310.0,-705.0,-1105.0,-316.0,-717.0,-1115.0,-314.0,-711.0,-1103.0
-305,-707.0,-1108.0,-310.0,-705.0,-1105.0,-316.0,-717.0,-1116.0,-314.0,-711.0,-1103.0
-306,-707.0,-1107.0,-311.0,-705.0,-1105.0,-315.0,-717.0,-1118.0,-314.0,-711.0,-1103.0
-306,-707.0,-1106.0,-310.0,-705.0,-1106.0,-315.0,-717.0,-1116.0,-314.0,-711.0,-1103.0
-307,-707.0,-1105.0,-310.0,-705.0,-1105.0,-315.0,-717.0,-1116.0,-314.0,-711.0,-1102.0
-308,-707.0,-1105.0,-310.0,-705.0,-1105.0,-315.0,-717.0,-1116.0,-313.0,-711.0,-1102.0
-308,-707.0,-1104.0,-309.0,-705.0,-1105.0,-315.0,-718.0,-1116.0,-313.0,-712.0,-1102.0
-309,-707.0,-1104.0,-309.0,-705.0,-1105.0,-314.0,-719.0,-1116.0,-312.0,-711.0,-1101.0
-309,-707.0,-1103.0,-309.0,-705.0,-1105.0,-314.0,-718.0,-1116.0,-312.0,-711.0,-1101.0
-310,-706.0,-1103.0,-309.0,-705.0,-1105.0,-314.0,-718.0,-1116.0,-312.0,-711.0,-1101.0
-311,-706.0,-1103.0,-309.0,-705.0,-1104.0,-314.0,-717.0,-1116.0,-311.0,-711.0,-1101.0
-311,-705.0,-1101.0,-309.0,-705.0,-1104.0,-313.0,-715.0,-1115.0,-311.0,-711.0,-1100.0
-312,-705.0,-1103.0,-309.0,-705.0,-1104.0,-312.0,-712.0,-1113.0,-310.0,-711.0,-1099.0
-312,-705.0,-1103.0,-309.0,-705.0,-1104.0,-312.0,-710.0,-1111.0,-310.0,-711.0,-1100.0
-314,-704.0,-1103.0,-309.0,-705.0,-1104.0,-314.0,-707.0,-1108.0,-309.0,-710.0,-1100.0
-312,-704.0,-1103.0,-309.0,-705.0,-1104.0,-320.0,-706.0,-1106.0,-309.0,-709.0,-1101.0
-312,-704.0,-1104.0,-309.0,-705.0,-1104.0,-328.0,-712.0,-1105.0,-308.0,-709.0,-1101.0
-311,-704.0,-1105.0,-308.0,-705.0,-1104.0,-339.0,-723.0,-1112.0,-308.0,-708.0,-1101.0
-311,-703.0,-1106.0,-308.0,-705.0,-1104.0,-361.0,-743.0,-1120.0,-307.0,-707.0,-1102.0
-309,-703.0,-1107.0,-306.0,-705.0,-1104.0,-377.0,-763.0,-1131.0,-306.0,-706.0,-1103.0
-308,-703.0,-1108.0,-308.0,-706.0,-1104.0,-395.0,-786.0,-1150.0,-306.0,-706.0,-1104.0
-307,-703.0,-1109.0,-308.0,-706.0,-1104.0,-417.0,-808.0,-1167.0,-305.0,-705.0,-1105.0
-306,-703.0,-1110.0,-308.0,-706.0,-1104.0,-438.0,-836.0,-1182.0,-305.0,-705.0,-1105.0
-305,-703.0,-1111.0,-309.0,-706.0,-1104.0,-457.0,-860.0,-1201.0,-304.0,-704.0,-1106.0
-304,-703.0,-1113.0,-309.0,-706.0,-1104.0,-471.0,-883.0,-1218.0,-303.0,-704.0,-1107.0
-303,-703.0,-1113.0,-309.0,-706.0,-1105.0,-481.0,-898.0,-1228.0,-303.0,-703.0,-1108.0
-303,-703.0,-1114.0,-309.0,-706.0,-1105.0,-493.0,-909.0,-1235.0,-302.0,-703.0,-1109.0
-303,-703.0,-1115.0,-309.0,-707.0,-1105.0,-506.0,-919.0,-1242.0,-302.0,-703.0,-1110.0
-302,-703.0,-1115.0,-309.0,-707.0,-1105.0,-492.0,-929.0,-1252.0,-300.0,-700.0,-1111.0
-302,-703.0,-1115.0,-309.0,-707.0,-1105.0,-485.0,-938.0,-1247.0,-302.0,-702.0,-1112.0
-302,-703.0,-1115.0,-310.0,-707.0,-1105.0,-476.0,-925.0,-1245.0,-302.0,-703.0,-1112.0
-300,-702.0,-1116.0,-310.0,-707.0,-1105.0,-465.0,-917.0,-1241.0,-303.0,-703.0,-1113.0
-302,-702.0,-1115.0,-310.0,-707.0,-1105.0,-453.0,-907.0,-1236.0,-304.0,-704.0,-1114.0
-302,-702.0,-1115.0,-310.0,-708.0,-1105.0,-439.0,-893.0,-1230.0,-305.0,-705.0,-1114.0
-302,-702.0,-1115.0,-311.0,-708.0,-1105.0,-426.0,-873.0,-1221.0,-306.0,-707.0,-1114.0
-302,-702.0,-1115.0,-311.0,-708.0,-1106.0,-415.0,-858.0,-1213.0,-307.0,-708.0,-1115.0
-303,-702.0,-1115.0,-311.0,-708.0,-1106.0,-404.0,-842.0,-1204.0,-308.0,-710.0,-1115.0
-304,-702.0,-1113.0,-311.0,-708.0,-1106.0,-390.0,-822.0,-1195.0,-308.0,-712.0,-1116.0
-307,-701.0,-1112.0,-311.0,-709.0,-1106.0,-377.0,-803.0,-1185.0,-309.0,-714.0,-1116.0
-310,-701.0,-1109.0,-312.0,-709.0,-1106.0,-366.0,-789.0,-1175.0,-309.0,-716.0,-1117.0
-315,-699.0,-1104.0,-312.0,-709.0,-1106.0,-355.0,-773.0,-1164.0,-310.0,-718.0,-1117.0
-322,-694.0,-1101.0,-312.0,-709.0,-1106.0,-345.0,-757.0,-1153.0,-310.0,-719.0,-1119.0
-329,-689.0,-1098.0,-312.0,-710.0,-1106.0,-335.0,-744.0,-1143.0,-310.0,-720.0,-1117.0
-335,-683.0,-1089.0,-312.0,-710.0,-1106.0,-326.0,-733.0,-1135.0,-311.0,-721.0,-1117.0
-342,-676.0,-1096.0,-312.0,-710.0,-1106.0,-319.0,-724.0,-1127.0,-311.0,-721.0,-1115.0
-348,-666.0,-1101.0,-312.0,-710.0,-1106.0,-313.0,-717.0,-1121.0,-311.0,-722.0,-1114.0
-354,-657.0,-1106.0,-312.0,-710.0,-1106.0,-310.0,-712.0,-1117.0,-312.0,-723.0,-1112.0
-358,-647.0,-1112.0,-313.0,-710.0,-1106.0,-306.0,-708.0,-1113.0,-311.0,-723.0,-1109.0
-360,-639.0,-1119.0,-312.0,-711.0,-1106.0,-304.0,-705.0,-1111.0,-311.0,-724.0,-1107.0
-365,-631.0,-1126.0,-312.0,-710.0,-1107.0,-304.0,-702.0,-1110.0,-311.0,-724.0,-1106.0
-362,-625.0,-1132.0,-312.0,-710.0,-1107.0,-302.0,-701.0,-1108.0,-311.0,-725.0,-1108.0
-360,-620.0,-1137.0,-312.0,-710.0,-1108.0,-302.0,-699.0,-1107.0,-310.0,-727.0,-1114.0
-356,-614.0,-1141.0,-312.0,-710.0,-1107.0,-301.0,-698.0,-1107.0,-308.0,-725.0,-1120.0
-351,-621.0,-1145.0,-312.0,-710.0,-1107.0,-300.0,-697.0,-1106.0,-305.0,-725.0,-1127.0
-346,-623.0,-1148.0,-312.0,-710.0,-1106.0,-299.0,-696.0,-1105.0,-300.0,-724.0,-1135.0
-339,-627.0,-1151.0,-312.0,-710.0,-1106.0,-299.0,-695.0,-1104.0,-294.0,-722.0,-1144.0
-333,-630.0,-1155.0,-311.0,-709.0,-1106.0,-298.0,-694.0,-1103.0,-287.0,-719.0,-1149.0
-328,-633.0,-1158.0,-310.0,-709.0,-1105.0,-297.0,-693.0,-1102.0,-279.0,-714.0,-1154.0
-323,-636.0,-1161.0,-310.0,-709.0,-1105.0,-297.0,-691.0,-1102.0,-272.0,-707.0,-1160.0
-319,-638.0,-1163.0,-309.0,-708.0,-1104.0,-297.0,-691.0,-1101.0,-262.0,-700.0,-1164.0
-316,-641.0,-1168.0,-309.0,-708.0,-1104.0,-296.0,-690.0,-1100.0,-256.0,-694.0,-1161.0
-314,-644.0,-1162.0,-309.0,-707.0,-1103.0,-296.0,-689.0,-1099.0,-247.0,-688.0,-1160.0
-313,-649.0,-1159.0,-308.0,-707.0,-1103.0,-296.0,-688.0,-1099.0,-242.0,-684.0,-1160.0
-312,-655.0,-1154.0,-308.0,-707.0,-1103.0,-296.0,-687.0,-1098.0,-238.0,-679.0,-1162.0
-312,-659.0,-1149.0,-308.0,-706.0,-1102.0,-296.0,-685.0,-1098.0,-230.0,-675.0,-1163.0
-311,-667.0,-1142.0,-308.0,-706.0,-1102.0,-296.0,-684.0,-1097.0,-237.0,-680.0,-1166.0
-310,-674.0,-1136.0,-307.0,-706.0,-1101.0,-296.0,-683.0,-1096.0,-243.0,-683.0,-1169.0
-309,-681.0,-1130.0,-305.0,-706.0,-1101.0,-296.0,-681.0,-1096.0,-248.0,-686.0,-1167.0
-308,-687.0,-1124.0,-307.0,-705.0,-1101.0,-296.0,-680.0,-1095.0,-254.0,-690.0,-1163.0
-307,-692.0,-1120.0,-308.0,-703.0,-1100.0,-296.0,-679.0,-1094.0,-261.0,-695.0,-1159.0
-306,-696.0,-1117.0,-308.0,-705.0,-1100.0,-295.0,-677.0,-1093.0,-267.0,-701.0,-1154.0
-306,-699.0,-1114.0,-309.0,-706.0,-1098.0,-295.0,-676.0,-1092.0,-271.0,-708.0,-1148.0
-305,-701.0,-1113.0,-309.0,-706.0,-1100.0,-295.0,-674.0,-1091.0,-273.0,-714.0,-1142.0
-305,-702.0,-1112.0,-309.0,-706.0,-1100.0,-294.0,-672.0,-1089.0,-276.0,-721.0,-1136.0
-303,-703.0,-1112.0,-310.0,-706.0,-1101.0,-293.0,-670.0,-1088.0,-277.0,-728.0,-1131.0
-305,-703.0,-1111.0,-310.0,-707.0,-1101.0,-293.0,-668.0,-1086.0,-279.0,-733.0,-1126.0
-305,-704.0,-1110.0,-311.0,-708.0,-1102.0,-292.0,-665.0,-1084.0,-281.0,-738.0,-1122.0
-305,-704.0,-1110.0,-312.0,-709.0,-1103.0,-291.0,-663.0,-1083.0,-285.0,-741.0,-1119.0
-306,-704.0,-1109.0,-313.0,-710.0,-1104.0,-290.0,-660.0,-1081.0,-289.0,-745.0,-1117.0
-306,-704.0,-1108.0,-314.0,-711.0,-1106.0,-290.0,-658.0,-1079.0,-293.0,-742.0,-1116.0
-307,-704.0,-1108.0,-315.0,-712.0,-1107.0,-289.0,-655.0,-1077.0,-298.0,-741.0,-1115.0
-308,-704.0,-1107.0,-315.0,-713.0,-1108.0,-287.0,-653.0,-1075.0,-302.0,-740.0,-1115.0
-308,-704.0,-1107.0,-316.0,-714.0,-1109.0,-286.0,-650.0,-1073.0,-306.0,-737.0,-1114.0
-309,-704.0,-1106.0,-317.0,-715.0,-1109.0,-285.0,-648.0,-1071.0,-308.0,-735.0,-1114.0
-309,-704.0,-1106.0,-317.0,-715.0,-1110.0,-284.0,-645.0,-1069.0,-310.0,-733.0,-1114.0
-311,-704.0,-1106.0,-317.0,-715.0,-1110.0,-283.0,-643.0,-1067.0,-310.0,-731.0,-1113.0
-309,-704.0,-1106.0,-318.0,-716.0,-1110.0,-282.0,-641.0,-1064.0,-311.0,-729.0,-1113.0
-309,-704.0,-1105.0,-318.0,-716.0,-1110.0,-281.0,-638.0,-1062.0,-311.0,-727.0,-1112.0
-308,-704.0,-1105.0,-319.0,-717.0,-1110.0,-280.0,-636.0,-1060.0,-312.0,-726.0,-1112.0
-308,-704.0,-1105.0,-318.0,-716.0,-1110.0,-280.0,-634.0,-1058.0,-312.0,-725.0,-1112.0
-307,-705.0,-1105.0,-318.0,-716.0,-1110.0,-279.0,-633.0,-1056.0,-313.0,-724.0,-1112.0
-307,-705.0,-1105.0,-318.0,-716.0,-1110.0,-277.0,-632.0,-1055.0,-312.0,-723.0,-1111.0
-307,-705.0,-1105.0,-317.0,-715.0,-1112.0,-279.0,-631.0,-1054.0,-312.0,-723.0,-1111.0
-307,-705.0,-1104.0,-317.0,-715.0,-1110.0,-279.0,-629.0,-1053.0,-311.0,-723.0,-1111.0
-307,-706.0,-1104.0,-315.0,-714.0,-1110.0,-280.0,-631.0,-1052.0,-311.0,-722.0,-1111.0
-305,-706.0,-1103.0,-314.0,-712.0,-1108.0,-281.0,-632.0,-1051.0,-311.0,-722.0,-1111.0
-307,-707.0,-1102.0,-311.0,-710.0,-1105.0,-282.0,-634.0,-1049.0,-311.0,-721.0,-1111.0
-307,-707.0,-1101.0,-309.0,-706.0,-1102.0,-283.0,-636.0,-1051.0,-311.0,-721.0,-1111.0
-307,-708.0,-1101.0,-306.0,-701.0,-1095.0,-284.0,-639.0,-1053.0,-310.0,-720.0,-1110.0
-307,-708.0,-1100.0,-301.0,-697.0,-1088.0,-286.0,-643.0,-1055.0,-310.0,-719.0,-1110.0
-307,-709.0,-1099.0,-307.0,-692.0,-1080.0,-289.0,-646.0,-1056.0,-310.0,-719.0,-1109.0
-307,-709.0,-1097.0,-310.0,-689.0,-1073.0,-291.0,-651.0,-1059.0,-310.0,-719.0,-1109.0
-308,-710.0,-1096.0,-317.0,-685.0,-1104.0,-293.0,-655.0,-1062.0,-310.0,-718.0,-1108.0
-309,-711.0,-1095.0,-324.0,-680.0,-1104.0,-295.0,-660.0,-1065.0,-310.0,-718.0,-1107.0
-310,-711.0,-1093.0,-332.0,-684.0,-1104.0,-298.0,-664.0,-1068.0,-310.0,-718.0,-1107.0
-311,-712.0,-1092.0,-336.0,-685.0,-1104.0,-300.0,-668.0,-1071.0,-309.0,-717.0,-1106.0
-312,-713.0,-1090.0,-342.0,-687.0,-1104.0,-302.0,-673.0,-1075.0,-309.0,-717.0,-1105.0
-312,-713.0,-1088.0,-309.0,-706.0,-1104.0,-304.0,-677.0,-1078.0,-309.0,-716.0,-1104.0
-314,-714.0,-1087.0,-309.0,-706.0,-1104.0,-306.0,-681.0,-1082.0,-309.0,-715.0,-1104.0
-315,-715.0,-1085.0,-309.0,-706.0,-1104.0,-307.0,-685.0,-1085.0,-309.0,-714.0,-1103.0
-315,-716.0,-1083.0,-309.0,-706.0,-1104.0,-309.0,-688.0,-1088.0,-309.0,-714.0,-1102.0
-316,-717.0,-1081.0,-309.0,-706.0,-1104.0,-310.0,-692.0,-1091.0,-308.0,-713.0,-1101.0
-317,-718.0,-1080.0,-309.0,-706.0,-1104.0,-311.0,-695.0,-1094.0,-308.0,-712.0,-1099.0
-317,-719.0,-1078.0,-309.0,-706.0,-1104.0,-312.0,-698.0,-1097.0,-308.0,-712.0,-1098.0
-318,-719.0,-1076.0,-309.0,-706.0,-1104.0,-312.0,-701.0,-1099.0,-308.0,-711.0,-1096.0
-319,-720.0,-1075.0,-309.0,-706.0,-1104.0,-313.0,-703.0,-1101.0,-308.0,-710.0,-1094.0
-319,-721.0,-1074.0,-309.0,-706.0,-1104.0,-313.0,-705.0,-1103.0,-308.0,-710.0,-1092.0
-320,-722.0,-1073.0,-309.0,-706.0,-1104.0,-315.0,-706.0,-1104.0,-308.0,-709.0,-1090.0
-321,-722.0,-1072.0,-309.0,-706.0,-1104.0,-314.0,-707.0,-1106.0,-307.0,-708.0,-1089.0
-321,-723.0,-1071.0,-309.0,-706.0,-1104.0,-313.0,-708.0,-1106.0,-307.0,-707.0,-1087.0
-322,-722.0,-1070.0,-309.0,-706.0,-1104.0,-313.0,-709.0,-1107.0,-307.0,-706.0,-1085.0
-323,-722.0,-1070.0,-309.0,-706.0,-1104.0,-313.0,-709.0,-1108.0,-307.0,-705.0,-1084.0
-323,-722.0,-1069.0,-309.0,-706.0,-1104.0,-312.0,-709.0,-1108.0,-307.0,-703.0,-1083.0
-324,-721.0,-1067.0,-309.0,-706.0,-1104.0,-312.0,-709.0,-1108.0,-307.0,-702.0,-1082.0
-324,-721.0,-1069.0,-309.0,-706.0,-1104.0,-312.0,-709.0,-1108.0,-307.0,-701.0,-1082.0
-325,-720.0,-1070.0,-309.0,-706.0,-1104.0,-312.0,-709.0,-1109.0,-307.0,-699.0,-1079.0
-326,-719.0,-1071.0,-309.0,-706.0,-1104.0,-311.0,-709.0,-1108.0,-307.0,-697.0,-1081.0
-325,-718.0,-1073.0,-309.0,-706.0,-1104.0,-311.0,-709.0,-1108.0,-307.0,-695.0,-1082.0
-325,-717.0,-1074.0,-309.0,-706.0,-1104.0,-311.0,-708.0,-1108.0,-306.0,-694.0,-1083.0
-324,-716.0,-1076.0,-309.0,-706.0,-1104.0,-311.0,-708.0,-1108.0,-306.0,-692.0,-1084.0
-324,-714.0,-1078.0,-309.0,-706.0,-1104.0,-311.0,-708.0,-1108.0,-306.0,-690.0,-1085.0
-323,-713.0,-1080.0,-309.0,-706.0,-1104.0,-310.0,-708.0,-1107.0,-305.0,-688.0,-1086.0
-321,-712.0,-1083.0,-309.0,-706.0,-1104.0,-310.0,-707.0,-1107.0,-305.0,-686.0,-1088.0
-320,-711.0,-1086.0,-309.0,-706.0,-1104.0,-310.0,-707.0,-1107.0,-304.0,-685.0,-1091.0
-318,-710.0,-1088.0,-309.0,-706.0,-1104.0,-310.0,-707.0,-1107.0,-303.0,-684.0,-1093.0
-317,-709.0,-1090.0,-309.0,-706.0,-1104.0,-310.0,-707.0,-1107.0,-303.0,-683.0,-1095.0
-316,-708.0,-1093.0,-309.0,-706.0,-1104.0,-310.0,-707.0,-1107.0,-302.0,-682.0,-1097.0
-314,-707.0,-1095.0,-309.0,-706.0,-1104.0,-310.0,-707.0,-1107.0,-301.0,-681.0,-1098.0
-313,-706.0,-1097.0,-309.0,-706.0,-1104.0,-310.0,-706.0,-1107.0,-301.0,-679.0,-1100.0
-312,-706.0,-1099.0,-309.0,-706.0,-1104.0,-310.0,-706.0,-1106.0,-300.0,-681.0,-1102.0
-311,-705.0,-1101.0,-309.0,-706.0,-1104.0,-310.0,-706.0,-1106.0,-300.0,-681.0,-1104.0
-310,-705.0,-1102.0,-309.0,-706.0,-1104.0,-310.0,-706.0,-1106.0,-300.0,-682.0,-1105.0
-309,-705.0,-1104.0,-309.0,-706.0,-1104.0,-310.0,-704.0,-1106.0,-298.0,-683.0,-1107.0
-309,-705.0,-1104.0,-309.0,-706.0,-1104.0,-310.0,-706.0,-1106.0,-300.0,-684.0,-1108.0
-308,-705.0,-1105.0,-309.0,-706.0,-1104.0,-310.0,-706.0,-1106.0,-300.0,-686.0,-1108.0
-308,-705.0,-1105.0,-309.0,-706.0,-1104.0,-310.0,-706.0,-1105.0,-300.0,-688.0,-1109.0
-308,-705.0,-1106.0,-309.0,-706.0,-1104.0,-310.0,-706.0,-1106.0,-301.0,-690.0,-1110.0
-307,-705.0,-1106.0,-309.0,-706.0,-1104.0,-309.0,-706.0,-1106.0,-302.0,-691.0,-1110.0
-307,-705.0,-1106.0,-309.0,-706.0,-1104.0,-309.0,-707.0,-1106.0,-303.0,-694.0,-1111.0
-307,-705.0,-1106.0,-309.0,-706.0,-1104.0,-309.0,-707.0,-1106.0,-304.0,-696.0,-1111.0
-307,-705.0,-1106.0,-309.0,-706.0,-1104.0,-309.0,-707.0,-1106.0,-305.0,-698.0,-1111.0
-307,-705.0,-1106.0,-309.0,-706.0,-1104.0,-307.0,-707.0,-1106.0,-305.0,-700.0,-1111.0
-307,-705.0,-1106.0,-309.0,-706.0,-1104.0,-309.0,-707.0,-1107.0,-306.0,-702.0,-1111.0
-306,-705.0,-1106.0,-309.0,-706.0,-1104.0,-309.0,-707.0,-1107.0,-307.0,-705.0,-1111.0
-304,-706.0,-1106.0,-309.0,-706.0,-1104.0,-309.0,-707.0,-1107.0,-308.0,-707.0,-1111.0
-306,-706.0,-1106.0,-309.0,-706.0,-1104.0,-309.0,-707.0,-1107.0,-308.0,-708.0,-1111.0
-307,-706.0,-1106.0,-309.0,-706.0,-1104.0,-309.0,-707.0,-1107.0,-309.0,-710.0,-1111.0
-307,-706.0,-1105.0,-309.0,-706.0,-1104.0,-310.0,-707.0,-1107.0,-309.0,-711.0,-1112.0
-307,-708.0,-1105.0,-309.0,-706.0,-1104.0,-310.0,-707.0,-1107.0,-309.0,-712.0,-1111.0
-307,-706.0,-1105.0,-309.0,-706.0,-1104.0,-310.0,-707.0,-1107.0,-309.0,-713.0,-1111.0
-308,-706.0,-1105.0,-309.0,-706.0,-1104.0,-310.0,-707.0,-1107.0,-309.0,-714.0,-1111.0
-308,-706.0,-1105.0,-309.0,-706.0,-1104.0,-310.0,-707.0,-1108.0,-309.0,-714.0,-1111.0
-308,-706.0,-1105.0,-309.0,-706.0,-1104.0,-310.0,-707.0,-1108.0,-310.0,-715.0,-1111.0
-308,-706.0,-1105.0,-309.0,-706.0,-1104.0,-310.0,-708.0,-1108.0,-310.0,-715.0,-1111.0
-309,-705.0,-1105.0,-309.0,-706.0,-1104.0,-310.0,-708.0,-1108.0,-310.0,-716.0,-1111.0
-309,-705.0,-1102.0,-309.0,-706.0,-1104.0,-310.0,-708.0,-1108.0,-312.0,-716.0,-1111.0
-309,-705.0,-1104.0,-309.0,-706.0,-1104.0,-309.0,-708.0,-1109.0,-310.0,-716.0,-1111.0
-309,-705.0,-1105.0,-309.0,-706.0,-1104.0,-309.0,-708.0,-1108.0,-310.0,-716.0,-1110.0
-310,-705.0,-1105.0,-309.0,-706.0,-1104.0,-309.0,-708.0,-1108.0,-310.0,-716.0,-1110.0
-309,-705.0,-1105.0,-309.0,-706.0,-1104.0,-309.0,-708.0,-1108.0,-309.0,-716.0,-1109.0
-309,-705.0,-1105.0,-309.0,-706.0,-1104.0,-307.0,-708.0,-1108.0,-309.0,-716.0,-1108.0
-309,-705.0,-1105.0,-309.0,-706.0,-1104.0,-309.0,-708.0,-1108.0,-309.0,-718.0,-1108.0
-309,-705.0,-1106.0,-309.0,-706.0,-1104.0,-309.0,-708.0,-1107.0,-309.0,-716.0,-1107.0
-309,-705.0,-1106.0,-309.0,-706.0,-1104.0,-309.0,-708.0,-1107.0,-309.0,-716.0,-1107.0
-308,-704.0,-1106.0,-309.0,-706.0,-1104.0,-309.0,-708.0,-1106.0,-309.0,-716.0,-1107.0
-308,-704.0,-1106.0,-309.0,-706.0,-1104.0,-309.0,-708.0,-1106.0,-309.0,-716.0,-1106.0
-308,-704.0,-1106.0,-309.0,-706.0,-1104.0,-310.0,-708.0,-1105.0,-309.0,-715.0,-1106.0
-308,-704.0,-1107.0,-309.0,-706.0,-1104.0,-310.0,-708.0,-1105.0,-309.0,-715.0,-1106.0
-309,-705.0,-1106.0,-309.0,-706.0,-1104.0,-310.0,-709.0,-1104.0,-309.0,-714.0,-1107.0
-309,-705.0,-1106.0,-309.0,-706.0,-1104.0,-311.0,-709.0,-1104.0,-309.0,-714.0,-1107.0
-309,-705.0,-1105.0,-309.0,-706.0,-1104.0,-312.0,-709.0,-1103.0,-309.0,-713.0,-1107.0
-310,-705.0,-1104.0,-309.0,-706.0,-1104.0,-313.0,-709.0,-1101.0,-308.0,-712.0,-1107.0
-310,-705.0,-1104.0,-309.0,-706.0,-1104.0,-314.0,-710.0,-1103.0,-308.0,-711.0,-1108.0
-311,-706.0,-1103.0,-309.0,-706.0,-1104.0,-315.0,-710.0,-1103.0,-308.0,-711.0,-1109.0
-312,-707.0,-1102.0,-309.0,-706.0,-1104.0,-316.0,-711.0,-1104.0,-308.0,-710.0,-1109.0
-313,-706.0,-1101.0,-309.0,-706.0,-1104.0,-318.0,-712.0,-1104.0,-307.0,-710.0,-1110.0
-313,-705.0,-1101.0,-309.0,-706.0,-1104.0,-318.0,-712.0,-1104.0,-306.0,-709.0,-1111.0
-314,-705.0,-1100.0,-309.0,-706.0,-1104.0,-319.0,-713.0,-1105.0,-306.0,-709.0,-1112.0
-315,-706.0,-1099.0,-309.0,-706.0,-1104.0,-321.0,-713.0,-1105.0,-305.0,-709.0,-1114.0
-315,-707.0,-1099.0,-309.0,-706.0,-1104.0,-319.0,-715.0,-1106.0,-305.0,-709.0,-1115.0
-316,-706.0,-1098.0,-309.0,-706.0,-1104.0,-319.0,-713.0,-1106.0,-304.0,-709.0,-1117.0
-317,-705.0,-1098.0,-309.0,-706.0,-1104.0,-318.0,-713.0,-1107.0,-302.0,-709.0,-1118.0
-318,-705.0,-1097.0,-309.0,-706.0,-1104.0,-318.0,-712.0,-1107.0,-304.0,-708.0,-1120.0
-318,-705.0,-1097.0,-309.0,-706.0,-1104.0,-316.0,-712.0,-1108.0,-305.0,-709.0,-1121.0
-319,-704.0,-1095.0,-309.0,-706.0,-1104.0,-316.0,-712.0,-1108.0,-305.0,-709.0,-1122.0
-320,-703.0,-1097.0,-309.0,-706.0,-1104.0,-315.0,-711.0,-1109.0,-306.0,-710.0,-1123.0
-320,-703.0,-1097.0,-309.0,-706.0,-1104.0,-314.0,-711.0,-1109.0,-307.0,-711.0,-1123.0
-321,-702.0,-1098.0,-309.0,-706.0,-1104.0,-313.0,-711.0,-1110.0,-307.0,-712.0,-1123.0
-320,-701.0,-1098.0,-309.0,-706.0,-1104.0,-312.0,-711.0,-1111.0,-308.0,-713.0,-1123.0
-320,-701.0,-1099.0,-309.0,-706.0,-1104.0,-312.0,-711.0,-1111.0,-309.0,-715.0,-1123.0
-320,-700.0,-1099.0,-309.0,-706.0,-1104.0,-311.0,-711.0,-1111.0,-310.0,-717.0,-1123.0
-319,-700.0,-1100.0,-309.0,-706.0,-1104.0,-311.0,-713.0,-1111.0,-310.0,-719.0,-1124.0
-318,-700.0,-1102.0,-309.0,-706.0,-1104.0,-311.0,-711.0,-1111.0,-311.0,-721.0,-1124.0
-317,-700.0,-1103.0,-309.0,-706.0,-1104.0,-311.0,-711.0,-1112.0,-312.0,-723.0,-1125.0
-315,-700.0,-1104.0,-309.0,-706.0,-1104.0,-310.0,-711.0,-1111.0,-313.0,-725.0,-1127.0
-314,-700.0,-1106.0,-309.0,-706.0,-1104.0,-310.0,-711.0,-1111.0,-313.0,-727.0,-1125.0
-312,-698.0,-1107.0,-309.0,-706.0,-1104.0,-310.0,-710.0,-1111.0,-313.0,-729.0,-1124.0
-311,-700.0,-1109.0,-309.0,-706.0,-1104.0,-309.0,-710.0,-1111.0,-313.0,-730.0,-1124.0
-310,-700.0,-1109.0,-309.0,-706.0,-1104.0,-309.0,-709.0,-1111.0,-313.0,-730.0,-1122.0
-309,-700.0,-1110.0,-309.0,-706.0,-1104.0,-309.0,-708.0,-1111.0,-314.0,-731.0,-1120.0
-309,-700.0,-1110.0,-309.0,-706.0,-1104.0,-308.0,-705.0,-1109.0,-314.0,-731.0,-1118.0
-308,-700.0,-1111.0,-309.0,-706.0,-1104.0,-307.0,-702.0,-1106.0,-315.0,-732.0,-1115.0
-308,-700.0,-1111.0,-309.0,-706.0,-1104.0,-303.0,-698.0,-1104.0,-314.0,-732.0,-1112.0
-308,-700.0,-1111.0,-309.0,-706.0,-1104.0,-309.0,-690.0,-1101.0,-314.0,-733.0,-1111.0
-307,-701.0,-1111.0,-309.0,-706.0,-1104.0,-316.0,-701.0,-1096.0,-313.0,-733.0,-1113.0
-307,-701.0,-1112.0,-309.0,-706.0,-1104.0,-330.0,-715.0,-1104.0,-312.0,-735.0,-1117.0
-307,-698.0,-1111.0,-309.0,-706.0,-1104.0,-346.0,-729.0,-1112.0,-310.0,-733.0,-1124.0
-306,-701.0,-1111.0,-309.0,-706.0,-1104.0,-367.0,-752.0,-1128.0,-307.0,-733.0,-1133.0
-304,-701.0,-1111.0,-309.0,-706.0,-1104.0,-387.0,-778.0,-1142.0,-302.0,-731.0,-1141.0
-306,-701.0,-1111.0,-309.0,-706.0,-1104.0,-412.0,-805.0,-1161.0,-296.0,-729.0,-1150.0
-306,-702.0,-1110.0,-309.0,-706.0,-1104.0,-438.0,-829.0,-1176.0,-290.0,-725.0,-1155.0
-308,-702.0,-1108.0,-309.0,-706.0,-1104.0,-458.0,-857.0,-1194.0,-281.0,-720.0,-1163.0
-311,-702.0,-1105.0,-309.0,-706.0,-1104.0,-471.0,-880.0,-1212.0,-272.0,-711.0,-1140.0
-315,-702.0,-1101.0,-309.0,-706.0,-1104.0,-484.0,-897.0,-1223.0,-265.0,-703.0,-1142.0
-320,-700.0,-1097.0,-309.0,-706.0,-1104.0,-494.0,-909.0,-1232.0,-258.0,-696.0,-1144.0
-327,-696.0,-1093.0,-309.0,-706.0,-1104.0,-504.0,-922.0,-1239.0,-252.0,-689.0,-1147.0
-335,-692.0,-1089.0,-309.0,-706.0,-1104.0,-493.0,-930.0,-1246.0,-247.0,-684.0,-1152.0
-341,-684.0,-1083.0,-309.0,-706.0,-1104.0,-486.0,-937.0,-1243.0,-244.0,-679.0,-1156.0
-347,-676.0,-1092.0,-309.0,-706.0,-1104.0,-477.0,-927.0,-1241.0,-244.0,-683.0,-1159.0
-354,-667.0,-1097.0,-309.0,-706.0,-1104.0,-467.0,-919.0,-1238.0,-243.0,-687.0,-1163.0
-357,-655.0,-1104.0,-309.0,-706.0,-1104.0,-455.0,-909.0,-1233.0,-326.0,-691.0,-1161.0
-360,-647.0,-1110.0,-309.0,-706.0,-1104.0,-445.0,-897.0,-1228.0,-322.0,-695.0,-1159.0
-362,-640.0,-1117.0,-309.0,-706.0,-1104.0,-432.0,-880.0,-1221.0,-319.0,-673.0,-1156.0
-365,-634.0,-1123.0,-309.0,-706.0,-1104.0,-420.0,-864.0,-1213.0,-312.0,-671.0,-1153.0
-361,-629.0,-1128.0,-309.0,-706.0,-1104.0,-405.0,-845.0,-1204.0,-307.0,-669.0,-1149.0
-358,-623.0,-1132.0,-309.0,-706.0,-1104.0,-393.0,-828.0,-1195.0,-305.0,-651.0,-1145.0
-353,-628.0,-1136.0,-309.0,-706.0,-1104.0,-378.0,-806.0,-1184.0,-304.0,-656.0,-1141.0
-348,-631.0,-1139.0,-309.0,-706.0,-1104.0,-365.0,-788.0,-1173.0,-302.0,-658.0,-1137.0
-342,-634.0,-1142.0,-309.0,-706.0,-1104.0,-352.0,-771.0,-1161.0,-301.0,-658.0,-1134.0
-336,-637.0,-1145.0,-309.0,-706.0,-1104.0,-342.0,-752.0,-1150.0,-300.0,-658.0,-1131.0
-329,-640.0,-1150.0,-309.0,-706.0,-1104.0,-331.0,-740.0,-1140.0,-299.0,-658.0,-1130.0
-324,-642.0,-1152.0,-309.0,-706.0,-1104.0,-322.0,-726.0,-1130.0,-298.0,-660.0,-1129.0
-320,-644.0,-1155.0,-309.0,-706.0,-1104.0,-317.0,-719.0,-1123.0,-296.0,-664.0,-1128.0
-317,-646.0,-1159.0,-309.0,-706.0,-1104.0,-313.0,-714.0,-1118.0,-295.0,-668.0,-1127.0
-315,-649.0,-1154.0,-309.0,-706.0,-1104.0,-314.0,-715.0,-1114.0,-294.0,-673.0,-1127.0
-314,-652.0,-1151.0,-309.0,-706.0,-1104.0,-317.0,-718.0,-1112.0,-293.0,-678.0,-1126.0
-313,-657.0,-1146.0,-309.0,-706.0,-1104.0,-314.0,-716.0,-1112.0,-293.0,-684.0,-1126.0
-313,-662.0,-1142.0,-309.0,-706.0,-1104.0,-313.0,-715.0,-1112.0,-293.0,-688.0,-1106.0
-312,-670.0,-1136.0,-309.0,-706.0,-1104.0,-312.0,-715.0,-1112.0,-291.0,-692.0,-1106.0
-311,-677.0,-1130.0,-309.0,-706.0,-1104.0,-311.0,-714.0,-1111.0,-293.0,-695.0,-1106.0
-310,-683.0,-1124.0,-309.0,-706.0,-1104.0,-310.0,-714.0,-1111.0,-293.0,-698.0,-1106.0
-310,-689.0,-1119.0,-309.0,-706.0,-1104.0,-310.0,-713.0,-1111.0,-293.0,-700.0,-1106.0
-310,-693.0,-1116.0,-309.0,-706.0,-1104.0,-309.0,-713.0,-1111.0,-293.0,-701.0,-1106.0
-309,-697.0,-1112.0,-309.0,-706.0,-1104.0,-308.0,-712.0,-1111.0,-294.0,-702.0,-1106.0
-309,-699.0,-1110.0,-309.0,-706.0,-1104.0,-307.0,-712.0,-1110.0,-308.0,-702.0,-1106.0
-309,-700.0,-1109.0,-309.0,-706.0,-1104.0,-307.0,-711.0,-1110.0,-308.0,-703.0,-1106.0
-309,-701.0,-1108.0,-309.0,-706.0,-1104.0,-306.0,-711.0,-1110.0,-308.0,-703.0,-1106.0
-309,-702.0,-1108.0,-309.0,-706.0,-1104.0,-306.0,-711.0,-1109.0,-308.0,-703.0,-1106.0
-310,-702.0,-1107.0,-309.0,-706.0,-1104.0,-305.0,-710.0,-1109.0,-308.0,-708.0,-1106.0
-310,-703.0,-1106.0,-309.0,-706.0,-1104.0,-305.0,-710.0,-1109.0,-308.0,-708.0,-1106.0
-310,-702.0,-1106.0,-309.0,-706.0,-1104.0,-305.0,-710.0,-1109.0,-308.0,-708.0,-1106.0
-312,-702.0,-1105.0,-309.0,-706.0,-1104.0,-305.0,-710.0,-1109.0,-308.0,-708.0,-1106.0
-312,-701.0,-1104.0,-309.0,-706.0,-1104.0,-304.0,-709.0,-1109.0,-308.0,-708.0,-1106.0
-312,-701.0,-1103.0,-309.0,-706.0,-1104.0,-304.0,-709.0,-1109.0,-308.0,-708.0,-1106.0
-289,-700.0,-1099.0,-309.0,-706.0,-1104.0,-303.0,-709.0,-1109.0,-308.0,-708.0,-1106.0
-289,-681.0,-1096.0,-309.0,-706.0,-1104.0,-303.0,-708.0,-1109.0,-308.0,-708.0,-1106.0
-289,-681.0,-1095.0,-309.0,-706.0,-1104.0,-302.0,-708.0,-1108.0,-308.0,-708.0,-1106.0
-289,-680.0,-1095.0,-309.0,-706.0,-1104.0,-301.0,-708.0,-1108.0,-308.0,-708.0,-1106.0
-289,-679.0,-1094.0,-309.0,-706.0,-1104.0,-301.0,-707.0,-1108.0,-308.0,-708.0,-1106.0
-289,-678.0,-1094.0,-309.0,-706.0,-1104.0,-300.0,-706.0,-1108.0,-308.0,-708.0,-1106.0
-289,-677.0,-1093.0,-309.0,-706.0,-1104.0,-299.0,-706.0,-1107.0,-308.0,-708.0,-1106.0
-289,-677.0,-1093.0,-309.0,-706.0,-1104.0,-298.0,-705.0,-1107.0,-308.0,-708.0,-1106.0
-289,-676.0,-1092.0,-309.0,-706.0,-1104.0,-297.0,-704.0,-1107.0,-308.0,-708.0,-1106.0
-289,-675.0,-1092.0,-309.0,-706.0,-1104.0,-296.0,-703.0,-1106.0,-308.0,-708.0,-1106.0
-288,-674.0,-1091.0,-309.0,-706.0,-1104.0,-295.0,-703.0,-1105.0,-308.0,-708.0,-1106.0
-288,-672.0,-1090.0,-309.0,-706.0,-1104.0,-294.0,-702.0,-1105.0,-308.0,-708.0,-1106.0
-288,-671.0,-1089.0,-309.0,-706.0,-1104.0,-292.0,-701.0,-1104.0,-308.0,-708.0,-1106.0
-288,-670.0,-1088.0,-309.0,-706.0,-1104.0,-290.0,-700.0,-1103.0,-308.0,-708.0,-1106.0
-287,-669.0,-1088.0,-309.0,-706.0,-1104.0,-289.0,-699.0,-1103.0,-308.0,-708.0,-1106.0
-287,-667.0,-1087.0,-309.0,-706.0,-1104.0,-287.0,-698.0,-1102.0,-308.0,-708.0,-1106.0
-286,-665.0,-1086.0,-309.0,-706.0,-1104.0,-285.0,-697.0,-1101.0,-308.0,-708.0,-1106.0
-286,-664.0,-1085.0,-309.0,-706.0,-1104.0,-284.0,-696.0,-1101.0,-308.0,-708.0,-1106.0
-286,-662.0,-1083.0,-309.0,-706.0,-1104.0,-282.0,-695.0,-1100.0,-308.0,-708.0,-1106.0
-285,-660.0,-1082.0,-309.0,-706.0,-1104.0,-280.0,-694.0,-1099.0,-308.0,-708.0,-1106.0
-284,-658.0,-1080.0,-309.0,-706.0,-1104.0,-279.0,-693.0,-1099.0,-308.0,-708.0,-1106.0
-283,-656.0,-1079.0,-309.0,-706.0,-1104.0,-277.0,-692.0,-1098.0,-308.0,-708.0,-1106.0
-283,-653.0,-1077.0,-309.0,-706.0,-1104.0,-275.0,-690.0,-1097.0,-308.0,-708.0,-1106.0
-282,-651.0,-1076.0,-309.0,-706.0,-1104.0,-274.0,-689.0,-1096.0,-308.0,-708.0,-1106.0
-281,-648.0,-1074.0,-309.0,-706.0,-1104.0,-309.0,-708.0,-1107.0,-308.0,-708.0,-1106.0
-280,-645.0,-1072.0,-309.0,-706.0,-1104.0,-309.0,-708.0,-1107.0,-308.0,-708.0,-1106.0
-279,-643.0,-1070.0,-309.0,-706.0,-1104.0,-309.0,-708.0,-1107.0,-308.0,-708.0,-1106.0
-278,-640.0,-1068.0,-309.0,-706.0,-1104.0,-309.0,-708.0,-1107.0,-308.0,-708.0,-1106.0
-277,-637.0,-1066.0,-309.0,-706.0,-1104.0,-309.0,-708.0,-1107.0,-308.0,-708.0,-1106.0
-276,-635.0,-1064.0,-309.0,-706.0,-1104.0,-309.0,-708.0,-1107.0,-308.0,-708.0,-1106.0
-275,-632.0,-1062.0,-309.0,-706.0,-1104.0,-309.0,-708.0,-1107.0,-308.0,-708.0,-1106.0
-275,-633.0,-1060.0,-309.0,-706.0,-1104.0,-309.0,-708.0,-1107.0,-308.0,-708.0,-1106.0
-274,-637.0,-1058.0,-309.0,-706.0,-1104.0,-309.0,-708.0,-1107.0,-308.0,-708.0,-1106.0
-273,-705.0,-1056.0,-309.0,-706.0,-1104.0,-309.0,-708.0,-1107.0,-308.0,-708.0,-1106.0
-272,-705.0,-1055.0,-309.0,-706.0,-1104.0,-309.0,-708.0,-1107.0,-308.0,-708.0,-1106.0
-272,-705.0,-1053.0,-309.0,-706.0,-1104.0,-309.0,-708.0,-1107.0,-308.0,-708.0,-1106.0
-272,-705.0,-1053.0,-309.0,-706.0,-1104.0,-309.0,-708.0,-1107.0,-308.0,-708.0,-1106.0
-273,-705.0,-1055.0,-309.0,-706.0,-1104.0,-309.0,-708.0,-1107.0,-308.0,-708.0,-1106.0
-274,-705.0,-1106.0,-309.0,-706.0,-1104.0,-309.0,-708.0,-1107.0,-308.0,-708.0,-1106.0
-274,-705.0,-1106.0,-309.0,-706.0,-1104.0,-309.0,-708.0,-1107.0,-308.0,-708.0,-1106.0
-276,-705.0,-1106.0,-309.0,-706.0,-1104.0,-309.0,-708.0,-1107.0,-308.0,-708.0,-1106.0
-277,-705.0,-1106.0,-309.0,-706.0,-1104.0,-309.0,-708.0,-1107.0,-308.0,-708.0,-1106.0
-279,-705.0,-1106.0,-309.0,-706.0,-1104.0,-309.0,-708.0,-1107.0,-308.0,-708.0,-1106.0
-281,-705.0,-1106.0,-309.0,-706.0,-1104.0,-309.0,-708.0,-1107.0,-308.0,-708.0,-1106.0
