aVR,aVL,aVF,V4,V5,V6,V1,V2,V3,I,II,III
-308,-709,-1092,-260.0,-678.0,-1094.0,-287.0,-654.0,-1084.0,-293.0,-700.0,-1113.0
-308,-709,-1092,-260.0,-678.0,-1094.0,-287.0,-654.0,-1084.0,-293.0,-700.0,-1113.0
-308,-710,-1091,-258.0,-677.0,-1093.0,-284.0,-654.0,-1083.0,-291.0,-696.0,-1111.0
-309,-711,-1090,-256.0,-677.0,-1093.0,-283.0,-653.0,-1082.0,-288.0,-690.0,-1108.0
-309,-712,-1089,-258.0,-676.0,-1092.0,-282.0,-651.0,-1081.0,-283.0,-682.0,-1105.0
-310,-713,-1087,-258.0,-675.0,-1091.0,-281.0,-650.0,-1079.0,-276.0,-677.0,-1105.0
-311,-714,-1085,-259.0,-673.0,-1090.0,-281.0,-646.0,-1077.0,-268.0,-671.0,-1110.0
-312,-715,-1084,-261.0,-675.0,-1089.0,-280.0,-644.0,-1076.0,-260.0,-667.0,-1114.0
-313,-715,-1082,-263.0,-676.0,-1086.0,-279.0,-641.0,-1074.0,-251.0,-661.0,-1121.0
-314,-716,-1080,-266.0,-677.0,-1088.0,-278.0,-634.0,-1072.0,-246.0,-666.0,-1131.0
-315,-717,-1078,-269.0,-679.0,-1089.0,-276.0,-650.0,-1070.0,-252.0,-669.0,-1141.0
-316,-717,-1076,-273.0,-681.0,-1090.0,-276.0,-651.0,-1068.0,-256.0,-672.0,-1150.0
-317,-718,-1075,-276.0,-683.0,-1091.0,-275.0,-653.0,-1065.0,-259.0,-676.0,-1158.0
-317,-718,-1073,-280.0,-685.0,-1092.0,-274.0,-654.0,-1063.0,-261.0,-680.0,-1164.0
-318,-719,-1069,-285.0,-688.0,-1095.0,-273.0,-656.0,-1059.0,-265.0,-686.0,-1169.0
-319,-720,-1068,-289.0,-691.0,-1096.0,-272.0,-659.0,-1053.0,-269.0,-692.0,-1172.0
-320,-720,-1068,-293.0,-694.0,-1098.0,-272.0,-662.0,-1059.0,-273.0,-699.0,-1174.0
-321,-721,-1062,-296.0,-698.0,-1101.0,-271.0,-664.0,-1061.0,-278.0,-706.0,-1176.0
-322,-720,-1069,-298.0,-701.0,-1103.0,-267.0,-666.0,-1065.0,-283.0,-714.0,-1177.0
-322,-720,-1069,-302.0,-704.0,-1105.0,-271.0,-669.0,-1067.0,-288.0,-721.0,-1178.0
-323,-720,-1069,-305.0,-707.0,-1107.0,-272.0,-671.0,-1069.0,-293.0,-728.0,-1180.0
-323,-719,-1069,-308.0,-710.0,-1109.0,-273.0,-671.0,-1070.0,-299.0,-734.0,-1182.0
-325,-718,-1069,-311.0,-713.0,-1112.0,-272.0,-671.0,-1069.0,-302.0,-737.0,-1187.0
-324,-718,-1069,-314.0,-714.0,-1113.0,-271.0,-669.0,-1067.0,-305.0,-744.0,-1182.0
-323,-717,-1070,-316.0,-717.0,-1115.0,-265.0,-666.0,-1065.0,-307.0,-741.0,-1179.0
-323,-715,-1071,-317.0,-718.0,-1116.0,-274.0,-664.0,-1062.0,-308.0,-740.0,-1174.0
-322,-714,-1071,-318.0,-720.0,-1117.0,-276.0,-661.0,-1059.0,-309.0,-738.0,-1167.0
-322,-713,-1058,-319.0,-720.0,-1117.0,-278.0,-658.0,-1057.0,-309.0,-736.0,-1161.0
-321,-712,-1078,-320.0,-721.0,-1118.0,-280.0,-655.0,-1055.0,-311.0,-733.0,-1152.0
-320,-710,-1080,-320.0,-721.0,-1119.0,-282.0,-653.0,-1057.0,-310.0,-730.0,-1144.0
-319,-709,-1082,-321.0,-723.0,-1118.0,-284.0,-633.0,-1059.0,-309.0,-727.0,-1137.0
-318,-709,-1085,-320.0,-722.0,-1117.0,-287.0,-646.0,-1062.0,-309.0,-725.0,-1129.0
-316,-707,-1088,-320.0,-721.0,-1117.0,-290.0,-651.0,-1065.0,-308.0,-723.0,-1124.0
-315,-706,-1090,-320.0,-721.0,-1116.0,-292.0,-654.0,-1068.0,-308.0,-721.0,-1120.0
-314,-705,-1092,-319.0,-721.0,-1116.0,-295.0,-660.0,-1071.0,-307.0,-720.0,-1117.0
-312,-705,-1095,-319.0,-720.0,-1115.0,-297.0,-666.0,-1074.0,-307.0,-719.0,-1115.0
-311,-705,-1097,-318.0,-719.0,-1114.0,-299.0,-670.0,-1076.0,-307.0,-718.0,-1114.0
-310,-704,-1099,-318.0,-718.0,-1114.0,-301.0,-673.0,-1081.0,-307.0,-718.0,-1113.0
-309,-704,-1100,-317.0,-718.0,-1113.0,-303.0,-677.0,-1085.0,-307.0,-717.0,-1112.0
-308,-704,-1102,-316.0,-717.0,-1112.0,-304.0,-683.0,-1088.0,-308.0,-716.0,-1112.0
-307,-704,-1103,-316.0,-716.0,-1111.0,-305.0,-686.0,-1091.0,-308.0,-716.0,-1111.0
-306,-703,-1104,-315.0,-715.0,-1110.0,-306.0,-690.0,-1094.0,-308.0,-715.0,-1111.0
-305,-703,-1105,-314.0,-714.0,-1109.0,-306.0,-693.0,-1097.0,-309.0,-714.0,-1110.0
-304,-703,-1105,-313.0,-713.0,-1108.0,-307.0,-696.0,-1098.0,-309.0,-713.0,-1110.0
-304,-703,-1106,-312.0,-711.0,-1106.0,-307.0,-698.0,-1100.0,-309.0,-712.0,-1110.0
-304,-703,-1106,-311.0,-710.0,-1105.0,-307.0,-700.0,-1101.0,-309.0,-711.0,-1109.0
-304,-703,-1106,-310.0,-709.0,-1104.0,-307.0,-701.0,-1102.0,-310.0,-711.0,-1109.0
-303,-703,-1108,-309.0,-708.0,-1103.0,-307.0,-702.0,-1103.0,-310.0,-711.0,-1108.0
-301,-704,-1106,-308.0,-707.0,-1102.0,-307.0,-703.0,-1104.0,-310.0,-710.0,-1108.0
-303,-704,-1106,-307.0,-706.0,-1101.0,-307.0,-703.0,-1104.0,-310.0,-710.0,-1107.0
-303,-704,-1106,-306.0,-705.0,-1100.0,-307.0,-704.0,-1105.0,-311.0,-710.0,-1107.0
-304,-704,-1105,-305.0,-704.0,-1100.0,-307.0,-704.0,-1105.0,-311.0,-710.0,-1106.0
-304,-704,-1105,-303.0,-703.0,-1099.0,-307.0,-705.0,-1105.0,-311.0,-710.0,-1106.0
-304,-704,-1105,-302.0,-702.0,-1099.0,-307.0,-705.0,-1105.0,-311.0,-709.0,-1105.0
-304,-705,-1105,-301.0,-700.0,-1098.0,-307.0,-705.0,-1105.0,-311.0,-709.0,-1105.0
-304,-705,-1105,-300.0,-699.0,-1097.0,-307.0,-705.0,-1105.0,-311.0,-709.0,-1104.0
-304,-705,-1104,-299.0,-698.0,-1096.0,-307.0,-705.0,-1105.0,-311.0,-708.0,-1103.0
-304,-705,-1104,-298.0,-697.0,-1095.0,-307.0,-705.0,-1105.0,-311.0,-708.0,-1103.0
-304,-705,-1104,-297.0,-696.0,-1094.0,-307.0,-705.0,-1105.0,-311.0,-707.0,-1102.0
-304,-705,-1104,-296.0,-695.0,-1093.0,-307.0,-705.0,-1105.0,-311.0,-706.0,-1102.0
-304,-705,-1104,-295.0,-694.0,-1092.0,-307.0,-705.0,-1105.0,-311.0,-706.0,-1101.0
-305,-705,-1104,-293.0,-693.0,-1091.0,-307.0,-705.0,-1105.0,-311.0,-705.0,-1100.0
-305,-705,-1103,-295.0,-691.0,-1089.0,-307.0,-705.0,-1105.0,-311.0,-704.0,-1099.0
-305,-705,-1102,-295.0,-693.0,-1091.0,-307.0,-705.0,-1104.0,-311.0,-703.0,-1097.0
-306,-705,-1103,-296.0,-693.0,-1092.0,-308.0,-705.0,-1104.0,-312.0,-702.0,-1096.0
-305,-706,-1103,-296.0,-694.0,-1092.0,-308.0,-705.0,-1104.0,-312.0,-700.0,-1095.0
-305,-705,-1104,-297.0,-694.0,-1093.0,-308.0,-705.0,-1103.0,-312.0,-699.0,-1093.0
-305,-705,-1104,-297.0,-695.0,-1093.0,-308.0,-705.0,-1104.0,-312.0,-697.0,-1091.0
-304,-705,-1104,-297.0,-695.0,-1093.0,-308.0,-705.0,-1104.0,-313.0,-696.0,-1090.0
-304,-705,-1105,-298.0,-695.0,-1094.0,-309.0,-705.0,-1104.0,-314.0,-694.0,-1088.0
-304,-705,-1105,-298.0,-695.0,-1094.0,-309.0,-705.0,-1104.0,-313.0,-692.0,-1086.0
-304,-705,-1105,-299.0,-695.0,-1094.0,-309.0,-705.0,-1105.0,-312.0,-690.0,-1084.0
-304,-705,-1105,-300.0,-696.0,-1095.0,-309.0,-705.0,-1105.0,-312.0,-689.0,-1082.0
-304,-705,-1106,-300.0,-697.0,-1095.0,-309.0,-706.0,-1105.0,-312.0,-687.0,-1080.0
-304,-705,-1106,-301.0,-698.0,-1097.0,-309.0,-706.0,-1105.0,-311.0,-685.0,-1078.0
-303,-705,-1106,-302.0,-699.0,-1097.0,-310.0,-706.0,-1105.0,-310.0,-683.0,-1076.0
-303,-705,-1107,-303.0,-701.0,-1099.0,-310.0,-706.0,-1105.0,-310.0,-682.0,-1074.0
-303,-705,-1107,-305.0,-703.0,-1101.0,-310.0,-706.0,-1106.0,-309.0,-679.0,-1072.0
-303,-704,-1107,-306.0,-704.0,-1103.0,-310.0,-706.0,-1106.0,-309.0,-678.0,-1070.0
-303,-704,-1107,-307.0,-706.0,-1105.0,-311.0,-707.0,-1106.0,-308.0,-676.0,-1069.0
-303,-704,-1107,-309.0,-708.0,-1107.0,-310.0,-707.0,-1106.0,-307.0,-674.0,-1067.0
-302,-704,-1107,-310.0,-710.0,-1108.0,-310.0,-707.0,-1106.0,-307.0,-672.0,-1066.0
-302,-704,-1107,-311.0,-711.0,-1110.0,-310.0,-708.0,-1106.0,-306.0,-671.0,-1065.0
-302,-704,-1108,-313.0,-712.0,-1112.0,-310.0,-708.0,-1108.0,-306.0,-670.0,-1064.0
-301,-704,-1107,-314.0,-714.0,-1113.0,-309.0,-708.0,-1106.0,-305.0,-668.0,-1063.0
-302,-704,-1107,-315.0,-715.0,-1115.0,-309.0,-708.0,-1106.0,-305.0,-668.0,-1060.0
-302,-704,-1107,-316.0,-716.0,-1115.0,-309.0,-708.0,-1106.0,-304.0,-667.0,-1062.0
-302,-704,-1107,-317.0,-716.0,-1115.0,-309.0,-709.0,-1105.0,-304.0,-666.0,-1063.0
-302,-705,-1107,-318.0,-717.0,-1116.0,-309.0,-709.0,-1105.0,-303.0,-664.0,-1064.0
-303,-705,-1107,-319.0,-718.0,-1117.0,-309.0,-709.0,-1105.0,-301.0,-666.0,-1065.0
-303,-705,-1107,-319.0,-719.0,-1118.0,-309.0,-709.0,-1104.0,-303.0,-667.0,-1067.0
-303,-705,-1106,-322.0,-719.0,-1119.0,-309.0,-709.0,-1104.0,-303.0,-668.0,-1068.0
-303,-705,-1106,-319.0,-722.0,-1123.0,-310.0,-709.0,-1104.0,-304.0,-670.0,-1070.0
-304,-706,-1105,-318.0,-719.0,-1120.0,-310.0,-709.0,-1103.0,-304.0,-671.0,-1073.0
-304,-706,-1104,-316.0,-717.0,-1118.0,-311.0,-709.0,-1103.0,-305.0,-673.0,-1075.0
-305,-706,-1103,-315.0,-714.0,-1115.0,-312.0,-709.0,-1101.0,-305.0,-675.0,-1078.0
-305,-707,-1102,-312.0,-709.0,-1109.0,-314.0,-710.0,-1103.0,-305.0,-678.0,-1080.0
-306,-707,-1102,-311.0,-706.0,-1103.0,-315.0,-711.0,-1103.0,-305.0,-681.0,-1083.0
-306,-707,-1101,-311.0,-702.0,-1096.0,-316.0,-711.0,-1103.0,-306.0,-683.0,-1085.0
-307,-708,-1100,-315.0,-699.0,-1089.0,-318.0,-712.0,-1104.0,-306.0,-686.0,-1088.0
-307,-709,-1100,-319.0,-691.0,-1081.0,-319.0,-713.0,-1104.0,-306.0,-688.0,-1090.0
-308,-708,-1099,-325.0,-694.0,-1076.0,-320.0,-713.0,-1105.0,-306.0,-690.0,-1092.0
-308,-707,-1099,-333.0,-696.0,-1071.0,-320.0,-714.0,-1105.0,-306.0,-692.0,-1094.0
-309,-707,-1098,-342.0,-699.0,-1067.0,-322.0,-714.0,-1106.0,-305.0,-695.0,-1097.0
-309,-707,-1096,-352.0,-702.0,-1064.0,-320.0,-714.0,-1106.0,-303.0,-697.0,-1098.0
-311,-706,-1098,-361.0,-706.0,-1060.0,-320.0,-714.0,-1107.0,-305.0,-699.0,-1099.0
-310,-706,-1099,-371.0,-709.0,-1063.0,-319.0,-714.0,-1107.0,-305.0,-700.0,-1101.0
-309,-706,-1099,-376.0,-713.0,-1064.0,-318.0,-714.0,-1107.0,-306.0,-702.0,-1102.0
-309,-705,-1100,-382.0,-717.0,-1067.0,-317.0,-714.0,-1108.0,-306.0,-703.0,-1102.0
-308,-705,-1102,-386.0,-721.0,-1070.0,-316.0,-715.0,-1109.0,-307.0,-704.0,-1103.0
-308,-705,-1102,-389.0,-725.0,-1074.0,-316.0,-715.0,-1110.0,-307.0,-704.0,-1104.0
-306,-705,-1104,-391.0,-729.0,-1078.0,-316.0,-716.0,-1111.0,-307.0,-705.0,-1104.0
-305,-704,-1105,-394.0,-732.0,-1083.0,-315.0,-716.0,-1111.0,-307.0,-705.0,-1105.0
-304,-704,-1107,-392.0,-736.0,-1088.0,-315.0,-717.0,-1112.0,-307.0,-706.0,-1105.0
-302,-704,-1109,-391.0,-739.0,-1092.0,-315.0,-717.0,-1113.0,-307.0,-706.0,-1106.0
-300,-704,-1110,-389.0,-741.0,-1096.0,-315.0,-718.0,-1113.0,-307.0,-706.0,-1107.0
-299,-703,-1112,-385.0,-746.0,-1100.0,-315.0,-718.0,-1113.0,-307.0,-706.0,-1106.0
-298,-703,-1113,-379.0,-743.0,-1103.0,-315.0,-718.0,-1113.0,-307.0,-706.0,-1105.0
-297,-703,-1114,-374.0,-741.0,-1107.0,-315.0,-718.0,-1114.0,-307.0,-707.0,-1105.0
-297,-703,-1115,-367.0,-739.0,-1109.0,-315.0,-719.0,-1113.0,-307.0,-706.0,-1105.0
-297,-703,-1115,-360.0,-735.0,-1111.0,-315.0,-720.0,-1113.0,-307.0,-706.0,-1104.0
-296,-703,-1116,-352.0,-732.0,-1114.0,-315.0,-719.0,-1113.0,-307.0,-706.0,-1104.0
-296,-703,-1116,-345.0,-728.0,-1115.0,-315.0,-719.0,-1113.0,-307.0,-706.0,-1104.0
-296,-703,-1116,-338.0,-724.0,-1118.0,-314.0,-718.0,-1112.0,-307.0,-706.0,-1104.0
-296,-702,-1117,-331.0,-720.0,-1116.0,-314.0,-715.0,-1111.0,-307.0,-705.0,-1103.0
-295,-701,-1117,-325.0,-717.0,-1115.0,-313.0,-712.0,-1109.0,-307.0,-705.0,-1103.0
-295,-702,-1117,-321.0,-713.0,-1114.0,-313.0,-709.0,-1107.0,-307.0,-705.0,-1103.0
-293,-702,-1119,-318.0,-711.0,-1113.0,-317.0,-708.0,-1105.0,-307.0,-704.0,-1103.0
-295,-703,-1117,-315.0,-709.0,-1113.0,-324.0,-716.0,-1103.0,-307.0,-704.0,-1103.0
-295,-698,-1116,-314.0,-708.0,-1113.0,-336.0,-741.0,-1112.0,-308.0,-704.0,-1103.0
-297,-702,-1115,-313.0,-707.0,-1113.0,-361.0,-753.0,-1119.0,-308.0,-703.0,-1103.0
-300,-702,-1112,-313.0,-707.0,-1112.0,-376.0,-769.0,-1130.0,-308.0,-703.0,-1102.0
-304,-703,-1110,-312.0,-707.0,-1112.0,-397.0,-793.0,-1151.0,-309.0,-703.0,-1102.0
-309,-703,-1104,-312.0,-707.0,-1112.0,-416.0,-829.0,-1165.0,-308.0,-703.0,-1102.0
-316,-701,-1099,-312.0,-707.0,-1111.0,-447.0,-853.0,-1182.0,-308.0,-703.0,-1101.0
-324,-697,-1095,-312.0,-707.0,-1111.0,-467.0,-873.0,-1199.0,-308.0,-703.0,-1102.0
-331,-692,-1091,-312.0,-708.0,-1111.0,-482.0,-900.0,-1220.0,-307.0,-703.0,-1102.0
-337,-686,-1082,-311.0,-708.0,-1111.0,-495.0,-919.0,-1230.0,-307.0,-704.0,-1102.0
-344,-680,-1089,-311.0,-709.0,-1110.0,-506.0,-929.0,-1238.0,-307.0,-704.0,-1103.0
-348,-672,-1093,-311.0,-710.0,-1110.0,-523.0,-942.0,-1242.0,-307.0,-704.0,-1103.0
-351,-664,-1097,-310.0,-710.0,-1110.0,-511.0,-954.0,-1252.0,-308.0,-704.0,-1103.0
-355,-658,-1103,-310.0,-711.0,-1110.0,-506.0,-963.0,-1247.0,-308.0,-704.0,-1103.0
-353,-653,-1108,-309.0,-711.0,-1109.0,-499.0,-955.0,-1245.0,-308.0,-704.0,-1103.0
-352,-649,-1113,-309.0,-711.0,-1108.0,-487.0,-949.0,-1241.0,-308.0,-705.0,-1103.0
-348,-642,-1118,-308.0,-712.0,-1108.0,-476.0,-939.0,-1236.0,-308.0,-705.0,-1103.0
-344,-647,-1123,-307.0,-711.0,-1107.0,-462.0,-926.0,-1231.0,-308.0,-705.0,-1103.0
-338,-649,-1127,-307.0,-711.0,-1107.0,-448.0,-909.0,-1223.0,-308.0,-705.0,-1103.0
-332,-652,-1130,-306.0,-711.0,-1106.0,-436.0,-892.0,-1216.0,-308.0,-705.0,-1103.0
-326,-654,-1135,-305.0,-710.0,-1106.0,-423.0,-876.0,-1207.0,-308.0,-705.0,-1103.0
-319,-656,-1139,-304.0,-710.0,-1106.0,-407.0,-852.0,-1196.0,-308.0,-705.0,-1103.0
-314,-658,-1144,-303.0,-709.0,-1105.0,-395.0,-829.0,-1185.0,-308.0,-705.0,-1103.0
-310,-658,-1148,-302.0,-708.0,-1105.0,-381.0,-811.0,-1175.0,-308.0,-705.0,-1103.0
-306,-658,-1151,-301.0,-708.0,-1105.0,-369.0,-792.0,-1164.0,-308.0,-705.0,-1103.0
-304,-659,-1157,-299.0,-707.0,-1105.0,-356.0,-774.0,-1152.0,-308.0,-705.0,-1103.0
-302,-661,-1154,-298.0,-705.0,-1104.0,-345.0,-762.0,-1143.0,-308.0,-705.0,-1103.0
-301,-663,-1152,-296.0,-704.0,-1104.0,-335.0,-749.0,-1135.0,-308.0,-705.0,-1103.0
-299,-667,-1149,-294.0,-702.0,-1103.0,-326.0,-737.0,-1127.0,-309.0,-705.0,-1103.0
-298,-672,-1145,-292.0,-700.0,-1102.0,-318.0,-726.0,-1120.0,-309.0,-706.0,-1103.0
-297,-677,-1141,-290.0,-698.0,-1102.0,-313.0,-718.0,-1115.0,-309.0,-705.0,-1103.0
-296,-683,-1136,-287.0,-696.0,-1101.0,-310.0,-714.0,-1112.0,-310.0,-705.0,-1103.0
-295,-688,-1131,-285.0,-694.0,-1100.0,-306.0,-709.0,-1109.0,-309.0,-705.0,-1103.0
-295,-693,-1128,-283.0,-693.0,-1099.0,-304.0,-706.0,-1107.0,-309.0,-705.0,-1103.0
-294,-696,-1124,-280.0,-691.0,-1099.0,-303.0,-704.0,-1106.0,-309.0,-705.0,-1103.0
-292,-699,-1121,-278.0,-689.0,-1099.0,-302.0,-702.0,-1104.0,-309.0,-705.0,-1103.0
-294,-701,-1119,-276.0,-688.0,-1098.0,-301.0,-700.0,-1103.0,-308.0,-705.0,-1103.0
-294,-703,-1118,-274.0,-687.0,-1098.0,-301.0,-699.0,-1102.0,-308.0,-705.0,-1103.0
-295,-703,-1117,-272.0,-686.0,-1098.0,-300.0,-698.0,-1102.0,-308.0,-705.0,-1103.0
-295,-704,-1116,-271.0,-685.0,-1097.0,-300.0,-697.0,-1101.0,-307.0,-705.0,-1103.0
-295,-704,-1115,-269.0,-683.0,-1097.0,-299.0,-696.0,-1101.0,-307.0,-705.0,-1103.0
-295,-705,-1115,-267.0,-682.0,-1096.0,-299.0,-695.0,-1100.0,-306.0,-705.0,-1103.0
-295,-705,-1114,-265.0,-681.0,-1094.0,-299.0,-694.0,-1099.0,-306.0,-705.0,-1103.0
-295,-705,-1114,-263.0,-679.0,-1093.0,-298.0,-693.0,-1099.0,-305.0,-705.0,-1103.0
-296,-705,-1114,-262.0,-677.0,-1091.0,-298.0,-692.0,-1098.0,-305.0,-705.0,-1103.0
-296,-706,-1113,-260.0,-676.0,-1090.0,-298.0,-691.0,-1097.0,-304.0,-704.0,-1102.0
-296,-706,-1113,-259.0,-675.0,-1089.0,-298.0,-691.0,-1097.0,-303.0,-704.0,-1101.0
-296,-706,-1112,-256.0,-674.0,-1088.0,-297.0,-690.0,-1096.0,-303.0,-703.0,-1101.0
-297,-706,-1112,-259.0,-672.0,-1086.0,-297.0,-688.0,-1095.0,-302.0,-701.0,-1100.0
-297,-706,-1112,-260.0,-674.0,-1084.0,-297.0,-687.0,-1094.0,-301.0,-700.0,-1099.0
-297,-706,-1111,-262.0,-675.0,-1086.0,-296.0,-686.0,-1094.0,-301.0,-699.0,-1099.0
-297,-706,-1111,-264.0,-677.0,-1086.0,-296.0,-684.0,-1093.0,-300.0,-698.0,-1098.0
-298,-706,-1111,-267.0,-679.0,-1088.0,-296.0,-683.0,-1092.0,-299.0,-697.0,-1097.0
-298,-706,-1110,-271.0,-682.0,-1088.0,-295.0,-681.0,-1091.0,-297.0,-696.0,-1097.0
-298,-706,-1110,-275.0,-685.0,-1090.0,-295.0,-679.0,-1089.0,-299.0,-695.0,-1097.0
-299,-706,-1109,-278.0,-688.0,-1092.0,-294.0,-678.0,-1088.0,-300.0,-694.0,-1097.0
-299,-706,-1109,-281.0,-691.0,-1093.0,-294.0,-676.0,-1086.0,-301.0,-693.0,-1096.0
-300,-707,-1108,-285.0,-694.0,-1095.0,-293.0,-674.0,-1085.0,-302.0,-692.0,-1094.0
-300,-707,-1107,-289.0,-697.0,-1096.0,-293.0,-671.0,-1083.0,-302.0,-692.0,-1096.0
-301,-707,-1107,-292.0,-699.0,-1098.0,-292.0,-669.0,-1081.0,-303.0,-692.0,-1096.0
-301,-707,-1106,-294.0,-702.0,-1098.0,-291.0,-667.0,-1080.0,-304.0,-691.0,-1097.0
-302,-707,-1105,-296.0,-703.0,-1099.0,-291.0,-664.0,-1078.0,-305.0,-689.0,-1097.0
-302,-708,-1105,-297.0,-704.0,-1100.0,-290.0,-661.0,-1076.0,-306.0,-691.0,-1098.0
-303,-708,-1104,-298.0,-705.0,-1100.0,-289.0,-659.0,-1074.0,-306.0,-692.0,-1099.0
-303,-708,-1103,-300.0,-706.0,-1101.0,-288.0,-656.0,-1071.0,-307.0,-692.0,-1099.0
-304,-709,-1102,-301.0,-706.0,-1101.0,-287.0,-653.0,-1069.0,-307.0,-693.0,-1100.0
-304,-709,-1101,-301.0,-707.0,-1101.0,-286.0,-650.0,-1067.0,-309.0,-694.0,-1100.0
-305,-710,-1100,-302.0,-707.0,-1101.0,-285.0,-648.0,-1065.0,-307.0,-695.0,-1101.0
-305,-710,-1099,-302.0,-709.0,-1101.0,-284.0,-644.0,-1062.0,-307.0,-696.0,-1101.0
-306,-711,-1097,-303.0,-707.0,-1101.0,-282.0,-642.0,-1060.0,-307.0,-698.0,-1102.0
-307,-711,-1096,-303.0,-707.0,-1101.0,-281.0,-639.0,-1058.0,-306.0,-700.0,-1103.0
-307,-712,-1094,-302.0,-706.0,-1101.0,-280.0,-637.0,-1056.0,-306.0,-702.0,-1104.0
-308,-713,-1093,-302.0,-706.0,-1100.0,-279.0,-635.0,-1054.0,-306.0,-703.0,-1104.0
-309,-714,-1092,-301.0,-705.0,-1100.0,-278.0,-632.0,-1052.0,-306.0,-704.0,-1105.0
-310,-715,-1090,-301.0,-704.0,-1099.0,-278.0,-631.0,-1050.0,-305.0,-705.0,-1106.0
-310,-715,-1088,-300.0,-704.0,-1098.0,-278.0,-630.0,-1049.0,-304.0,-706.0,-1106.0
-311,-716,-1087,-300.0,-703.0,-1098.0,-275.0,-628.0,-1047.0,-303.0,-707.0,-1106.0
-312,-717,-1085,-300.0,-702.0,-1098.0,-278.0,-626.0,-1047.0,-300.0,-706.0,-1106.0
-313,-718,-1083,-299.0,-702.0,-1097.0,-278.0,-628.0,-1045.0,-296.0,-705.0,-1106.0
-314,-719,-1081,-299.0,-701.0,-1097.0,-280.0,-630.0,-1043.0,-289.0,-705.0,-1106.0
-315,-719,-1079,-299.0,-701.0,-1097.0,-280.0,-631.0,-1045.0,-281.0,-705.0,-1106.0
-316,-720,-1078,-299.0,-701.0,-1097.0,-282.0,-635.0,-1046.0,-274.0,-705.0,-1108.0
-317,-721,-1076,-299.0,-701.0,-1097.0,-283.0,-638.0,-1048.0,-265.0,-704.0,-1107.0
-318,-721,-1075,-298.0,-700.0,-1097.0,-285.0,-641.0,-1050.0,-256.0,-704.0,-1106.0
-318,-722,-1074,-298.0,-700.0,-1097.0,-287.0,-645.0,-1052.0,-246.0,-703.0,-1105.0
-319,-722,-1073,-298.0,-700.0,-1097.0,-290.0,-649.0,-1055.0,-238.0,-701.0,-1104.0
-320,-723,-1072,-298.0,-700.0,-1097.0,-292.0,-653.0,-1058.0,-230.0,-697.0,-1103.0
-321,-722,-1071,-298.0,-700.0,-1097.0,-295.0,-659.0,-1061.0,-225.0,-691.0,-1101.0
-321,-722,-1071,-297.0,-700.0,-1096.0,-297.0,-663.0,-1064.0,-220.0,-684.0,-1098.0
-322,-721,-1069,-297.0,-699.0,-1096.0,-299.0,-668.0,-1068.0,-213.0,-678.0,-1092.0
-322,-720,-1071,-297.0,-697.0,-1096.0,-301.0,-674.0,-1071.0,-220.0,-671.0,-1096.0
-323,-720,-1071,-297.0,-699.0,-1094.0,-304.0,-679.0,-1075.0,-225.0,-665.0,-1100.0
-325,-719,-1072,-297.0,-699.0,-1096.0,-305.0,-683.0,-1079.0,-231.0,-660.0,-1106.0
-323,-717,-1073,-296.0,-700.0,-1096.0,-306.0,-688.0,-1082.0,-237.0,-655.0,-1114.0
-322,-716,-1075,-296.0,-700.0,-1096.0,-308.0,-692.0,-1085.0,-243.0,-660.0,-1124.0
-322,-715,-1077,-296.0,-700.0,-1097.0,-309.0,-695.0,-1088.0,-248.0,-662.0,-1134.0
-321,-713,-1079,-296.0,-701.0,-1097.0,-309.0,-698.0,-1091.0,-253.0,-665.0,-1144.0
-320,-712,-1081,-296.0,-701.0,-1097.0,-310.0,-701.0,-1094.0,-257.0,-669.0,-1153.0
-319,-711,-1084,-296.0,-701.0,-1098.0,-310.0,-703.0,-1096.0,-260.0,-672.0,-1159.0
-317,-710,-1086,-295.0,-700.0,-1097.0,-310.0,-706.0,-1098.0,-263.0,-677.0,-1165.0
-316,-709,-1088,-295.0,-700.0,-1097.0,-311.0,-707.0,-1099.0,-266.0,-682.0,-1170.0
-315,-708,-1090,-294.0,-699.0,-1096.0,-312.0,-708.0,-1101.0,-270.0,-689.0,-1173.0
-313,-707,-1093,-294.0,-699.0,-1096.0,-311.0,-709.0,-1102.0,-275.0,-697.0,-1174.0
-312,-706,-1095,-291.0,-698.0,-1095.0,-310.0,-710.0,-1102.0,-281.0,-704.0,-1174.0
-311,-705,-1097,-293.0,-696.0,-1093.0,-310.0,-710.0,-1103.0,-285.0,-711.0,-1175.0
-310,-704,-1099,-294.0,-698.0,-1095.0,-310.0,-711.0,-1104.0,-291.0,-718.0,-1177.0
-309,-704,-1101,-295.0,-699.0,-1095.0,-310.0,-711.0,-1104.0,-295.0,-725.0,-1179.0
-308,-703,-1102,-296.0,-700.0,-1096.0,-310.0,-713.0,-1104.0,-300.0,-729.0,-1183.0
-307,-703,-1104,-298.0,-701.0,-1097.0,-310.0,-711.0,-1105.0,-304.0,-732.0,-1179.0
-306,-703,-1105,-299.0,-703.0,-1098.0,-310.0,-711.0,-1105.0,-306.0,-736.0,-1175.0
-305,-702,-1106,-301.0,-704.0,-1099.0,-310.0,-711.0,-1105.0,-307.0,-731.0,-1169.0
-304,-700,-1106,-303.0,-706.0,-1101.0,-310.0,-711.0,-1105.0,-309.0,-729.0,-1162.0
-304,-702,-1107,-305.0,-708.0,-1102.0,-310.0,-711.0,-1105.0,-309.0,-726.0,-1155.0
-303,-702,-1108,-306.0,-710.0,-1104.0,-310.0,-710.0,-1105.0,-311.0,-722.0,-1146.0
-303,-703,-1108,-307.0,-712.0,-1105.0,-310.0,-710.0,-1104.0,-310.0,-719.0,-1138.0
-303,-703,-1110,-309.0,-713.0,-1105.0,-310.0,-710.0,-1104.0,-309.0,-716.0,-1129.0
-303,-703,-1108,-310.0,-715.0,-1106.0,-310.0,-710.0,-1104.0,-309.0,-713.0,-1122.0
-303,-703,-1108,-311.0,-715.0,-1107.0,-310.0,-709.0,-1104.0,-308.0,-711.0,-1116.0
-301,-703,-1108,-311.0,-716.0,-1108.0,-310.0,-709.0,-1104.0,-307.0,-709.0,-1111.0
-303,-703,-1107,-312.0,-717.0,-1110.0,-310.0,-709.0,-1104.0,-307.0,-708.0,-1108.0
-303,-703,-1107,-313.0,-718.0,-1111.0,-310.0,-709.0,-1104.0,-306.0,-707.0,-1106.0
-303,-704,-1107,-314.0,-719.0,-1113.0,-310.0,-709.0,-1104.0,-306.0,-707.0,-1105.0
-303,-704,-1107,-315.0,-721.0,-1115.0,-310.0,-709.0,-1102.0,-306.0,-706.0,-1104.0
-303,-704,-1107,-315.0,-723.0,-1117.0,-310.0,-709.0,-1103.0,-306.0,-706.0,-1103.0
-303,-704,-1107,-317.0,-721.0,-1118.0,-310.0,-709.0,-1104.0,-306.0,-705.0,-1102.0
-304,-704,-1107,-316.0,-721.0,-1120.0,-310.0,-709.0,-1104.0,-307.0,-705.0,-1102.0
-304,-705,-1106,-315.0,-720.0,-1118.0,-310.0,-709.0,-1104.0,-307.0,-704.0,-1102.0
-304,-706,-1106,-315.0,-719.0,-1117.0,-310.0,-709.0,-1104.0,-307.0,-704.0,-1101.0
-304,-705,-1106,-315.0,-718.0,-1116.0,-310.0,-709.0,-1104.0,-307.0,-703.0,-1101.0
-304,-704,-1105,-314.0,-717.0,-1115.0,-310.0,-709.0,-1104.0,-307.0,-702.0,-1101.0
-304,-705,-1105,-313.0,-716.0,-1115.0,-310.0,-709.0,-1104.0,-307.0,-701.0,-1100.0
-304,-705,-1105,-313.0,-715.0,-1114.0,-310.0,-709.0,-1104.0,-307.0,-700.0,-1100.0
-303,-705,-1105,-312.0,-714.0,-1114.0,-309.0,-709.0,-1104.0,-307.0,-698.0,-1100.0
-303,-705,-1105,-311.0,-713.0,-1114.0,-309.0,-709.0,-1104.0,-307.0,-700.0,-1100.0
-303,-705,-1105,-310.0,-712.0,-1114.0,-309.0,-709.0,-1105.0,-307.0,-700.0,-1100.0
-303,-705,-1106,-309.0,-710.0,-1112.0,-309.0,-709.0,-1104.0,-307.0,-701.0,-1100.0
-302,-705,-1106,-308.0,-708.0,-1111.0,-308.0,-709.0,-1104.0,-307.0,-701.0,-1100.0
-302,-705,-1106,-304.0,-705.0,-1107.0,-308.0,-709.0,-1104.0,-307.0,-701.0,-1100.0
-302,-705,-1106,-310.0,-703.0,-1102.0,-308.0,-709.0,-1104.0,-307.0,-701.0,-1100.0
-301,-705,-1107,-315.0,-701.0,-1098.0,-308.0,-709.0,-1104.0,-307.0,-701.0,-1099.0
-301,-705,-1107,-321.0,-697.0,-1094.0,-308.0,-709.0,-1104.0,-307.0,-700.0,-1099.0
-301,-705,-1107,-328.0,-702.0,-1090.0,-307.0,-709.0,-1104.0,-307.0,-700.0,-1098.0
-300,-705,-1108,-338.0,-706.0,-1085.0,-307.0,-709.0,-1104.0,-307.0,-699.0,-1097.0
-300,-705,-1108,-348.0,-709.0,-1083.0,-307.0,-710.0,-1103.0,-307.0,-699.0,-1097.0
-300,-705,-1108,-359.0,-713.0,-1081.0,-307.0,-710.0,-1103.0,-307.0,-698.0,-1096.0
-300,-705,-1108,-369.0,-718.0,-1080.0,-307.0,-710.0,-1103.0,-308.0,-697.0,-1095.0
-298,-705,-1109,-375.0,-721.0,-1078.0,-308.0,-710.0,-1103.0,-308.0,-697.0,-1095.0
-300,-705,-1110,-381.0,-725.0,-1080.0,-309.0,-711.0,-1103.0,-308.0,-696.0,-1094.0
-300,-705,-1109,-387.0,-728.0,-1080.0,-309.0,-711.0,-1100.0,-308.0,-695.0,-1093.0
-300,-705,-1108,-392.0,-731.0,-1082.0,-310.0,-712.0,-1102.0,-308.0,-694.0,-1092.0
-300,-705,-1108,-397.0,-733.0,-1083.0,-311.0,-713.0,-1103.0,-309.0,-693.0,-1091.0
-301,-705,-1107,-395.0,-735.0,-1085.0,-312.0,-714.0,-1103.0,-309.0,-691.0,-1089.0
-302,-705,-1106,-394.0,-738.0,-1087.0,-314.0,-715.0,-1103.0,-311.0,-690.0,-1088.0
-302,-705,-1106,-393.0,-739.0,-1090.0,-315.0,-715.0,-1104.0,-310.0,-689.0,-1086.0
-303,-705,-1105,-391.0,-741.0,-1093.0,-315.0,-716.0,-1104.0,-309.0,-688.0,-1085.0
-304,-705,-1104,-388.0,-743.0,-1096.0,-316.0,-717.0,-1104.0,-309.0,-686.0,-1084.0
-304,-705,-1104,-386.0,-744.0,-1101.0,-318.0,-717.0,-1105.0,-309.0,-684.0,-1082.0
-305,-705,-1103,-382.0,-745.0,-1104.0,-316.0,-717.0,-1106.0,-308.0,-682.0,-1080.0
-305,-705,-1103,-377.0,-749.0,-1109.0,-315.0,-718.0,-1106.0,-308.0,-681.0,-1078.0
-306,-705,-1102,-371.0,-746.0,-1112.0,-315.0,-718.0,-1107.0,-307.0,-679.0,-1077.0
-307,-706,-1102,-365.0,-744.0,-1115.0,-314.0,-718.0,-1108.0,-307.0,-678.0,-1075.0
-307,-707,-1101,-358.0,-741.0,-1117.0,-313.0,-718.0,-1109.0,-306.0,-676.0,-1073.0
-307,-706,-1101,-350.0,-737.0,-1118.0,-312.0,-718.0,-1110.0,-306.0,-674.0,-1071.0
-308,-705,-1099,-343.0,-733.0,-1120.0,-311.0,-718.0,-1111.0,-305.0,-673.0,-1069.0
-308,-705,-1101,-336.0,-730.0,-1118.0,-310.0,-718.0,-1112.0,-304.0,-671.0,-1068.0
-308,-704,-1101,-330.0,-726.0,-1117.0,-309.0,-719.0,-1112.0,-304.0,-669.0,-1066.0
-309,-703,-1101,-325.0,-723.0,-1116.0,-308.0,-719.0,-1113.0,-303.0,-667.0,-1064.0
-310,-703,-1102,-321.0,-721.0,-1115.0,-308.0,-719.0,-1113.0,-303.0,-666.0,-1064.0
-309,-703,-1102,-319.0,-719.0,-1114.0,-308.0,-719.0,-1114.0,-302.0,-664.0,-1063.0
-308,-702,-1103,-316.0,-718.0,-1113.0,-307.0,-719.0,-1114.0,-302.0,-664.0,-1061.0
-308,-702,-1104,-314.0,-717.0,-1112.0,-307.0,-720.0,-1115.0,-302.0,-663.0,-1059.0
-307,-701,-1105,-313.0,-716.0,-1111.0,-306.0,-720.0,-1115.0,-302.0,-662.0,-1061.0
-306,-701,-1106,-312.0,-715.0,-1111.0,-306.0,-721.0,-1115.0,-301.0,-660.0,-1062.0
-305,-701,-1108,-311.0,-714.0,-1110.0,-306.0,-720.0,-1116.0,-299.0,-662.0,-1063.0
-304,-700,-1109,-310.0,-713.0,-1110.0,-305.0,-720.0,-1115.0,-301.0,-663.0,-1064.0
-302,-700,-1111,-309.0,-713.0,-1109.0,-305.0,-719.0,-1115.0,-301.0,-664.0,-1066.0
-301,-698,-1113,-308.0,-712.0,-1109.0,-304.0,-718.0,-1115.0,-302.0,-665.0,-1068.0
-299,-700,-1114,-307.0,-712.0,-1108.0,-304.0,-717.0,-1114.0,-302.0,-667.0,-1070.0
-298,-700,-1116,-307.0,-712.0,-1108.0,-303.0,-714.0,-1111.0,-302.0,-668.0,-1072.0
-297,-701,-1116,-306.0,-712.0,-1108.0,-299.0,-711.0,-1109.0,-302.0,-671.0,-1074.0
-296,-702,-1117,-306.0,-711.0,-1107.0,-302.0,-708.0,-1107.0,-302.0,-673.0,-1077.0
-295,-702,-1119,-306.0,-711.0,-1107.0,-308.0,-709.0,-1105.0,-303.0,-676.0,-1080.0
-295,-702,-1118,-305.0,-711.0,-1107.0,-321.0,-721.0,-1105.0,-303.0,-678.0,-1082.0
-295,-701,-1117,-305.0,-711.0,-1106.0,-331.0,-732.0,-1113.0,-303.0,-681.0,-1085.0
-295,-701,-1117,-305.0,-711.0,-1104.0,-345.0,-746.0,-1122.0,-304.0,-683.0,-1088.0
-295,-701,-1117,-304.0,-711.0,-1106.0,-366.0,-770.0,-1135.0,-305.0,-686.0,-1091.0
-295,-701,-1117,-304.0,-710.0,-1106.0,-388.0,-795.0,-1148.0,-305.0,-688.0,-1093.0
-294,-701,-1118,-304.0,-710.0,-1107.0,-409.0,-818.0,-1165.0,-305.0,-691.0,-1095.0
-292,-701,-1120,-304.0,-710.0,-1107.0,-431.0,-842.0,-1184.0,-305.0,-693.0,-1097.0
-294,-701,-1118,-303.0,-710.0,-1107.0,-453.0,-866.0,-1198.0,-305.0,-695.0,-1098.0
-296,-701,-1117,-303.0,-710.0,-1108.0,-470.0,-892.0,-1217.0,-305.0,-697.0,-1100.0
-299,-701,-1116,-303.0,-710.0,-1108.0,-483.0,-907.0,-1228.0,-305.0,-699.0,-1101.0
-302,-701,-1113,-302.0,-710.0,-1109.0,-491.0,-923.0,-1235.0,-305.0,-700.0,-1102.0
-306,-701,-1108,-302.0,-710.0,-1109.0,-507.0,-935.0,-1242.0,-305.0,-701.0,-1103.0
-312,-699,-1103,-301.0,-710.0,-1110.0,-493.0,-943.0,-1249.0,-305.0,-702.0,-1103.0
-320,-697,-1097,-301.0,-709.0,-1110.0,-487.0,-952.0,-1244.0,-306.0,-703.0,-1104.0
-328,-692,-1093,-300.0,-709.0,-1111.0,-479.0,-941.0,-1241.0,-306.0,-703.0,-1104.0
-335,-686,-1089,-299.0,-709.0,-1111.0,-469.0,-933.0,-1237.0,-306.0,-704.0,-1104.0
-340,-681,-1079,-299.0,-708.0,-1112.0,-459.0,-924.0,-1232.0,-306.0,-704.0,-1105.0
-347,-675,-1088,-298.0,-708.0,-1112.0,-445.0,-908.0,-1226.0,-306.0,-704.0,-1104.0
-353,-666,-1092,-297.0,-707.0,-1113.0,-434.0,-896.0,-1220.0,-306.0,-705.0,-1104.0
-356,-657,-1098,-296.0,-707.0,-1113.0,-422.0,-879.0,-1212.0,-306.0,-704.0,-1104.0
-359,-650,-1103,-294.0,-706.0,-1114.0,-408.0,-860.0,-1202.0,-306.0,-704.0,-1103.0
-363,-646,-1108,-293.0,-705.0,-1114.0,-393.0,-839.0,-1191.0,-306.0,-704.0,-1103.0
-359,-640,-1113,-292.0,-704.0,-1114.0,-379.0,-820.0,-1182.0,-306.0,-703.0,-1103.0
-356,-631,-1119,-290.0,-704.0,-1115.0,-365.0,-800.0,-1169.0,-306.0,-703.0,-1103.0
-352,-636,-1124,-289.0,-703.0,-1114.0,-354.0,-783.0,-1157.0,-306.0,-703.0,-1103.0
-346,-638,-1128,-288.0,-703.0,-1114.0,-341.0,-765.0,-1147.0,-306.0,-703.0,-1102.0
-340,-640,-1132,-287.0,-702.0,-1114.0,-330.0,-751.0,-1138.0,-306.0,-703.0,-1102.0
-334,-643,-1137,-286.0,-701.0,-1114.0,-320.0,-736.0,-1128.0,-307.0,-703.0,-1102.0
-328,-645,-1141,-285.0,-700.0,-1113.0,-313.0,-724.0,-1121.0,-307.0,-703.0,-1101.0
-323,-646,-1146,-284.0,-699.0,-1112.0,-307.0,-716.0,-1115.0,-307.0,-703.0,-1101.0
-319,-646,-1149,-283.0,-698.0,-1112.0,-303.0,-710.0,-1109.0,-307.0,-703.0,-1101.0
-314,-647,-1152,-282.0,-697.0,-1111.0,-299.0,-706.0,-1106.0,-308.0,-703.0,-1101.0
-311,-648,-1157,-281.0,-696.0,-1110.0,-297.0,-702.0,-1103.0,-307.0,-703.0,-1101.0
-310,-651,-1152,-280.0,-695.0,-1108.0,-295.0,-699.0,-1101.0,-307.0,-703.0,-1101.0
-310,-654,-1148,-279.0,-694.0,-1107.0,-294.0,-697.0,-1100.0,-307.0,-703.0,-1101.0
-310,-659,-1145,-277.0,-693.0,-1106.0,-293.0,-696.0,-1099.0,-307.0,-703.0,-1100.0
-309,-665,-1141,-279.0,-692.0,-1105.0,-292.0,-694.0,-1098.0,-307.0,-703.0,-1101.0
-306,-672,-1135,-280.0,-692.0,-1104.0,-292.0,-693.0,-1097.0,-306.0,-703.0,-1101.0
-305,-678,-1130,-281.0,-690.0,-1103.0,-292.0,-692.0,-1096.0,-306.0,-703.0,-1101.0
-303,-684,-1125,-283.0,-692.0,-1103.0,-291.0,-691.0,-1095.0,-306.0,-703.0,-1101.0
-301,-690,-1122,-285.0,-692.0,-1102.0,-291.0,-690.0,-1094.0,-306.0,-703.0,-1101.0
-300,-694,-1118,-287.0,-693.0,-1100.0,-291.0,-689.0,-1094.0,-306.0,-703.0,-1101.0
-300,-697,-1115,-290.0,-694.0,-1102.0,-291.0,-688.0,-1094.0,-307.0,-703.0,-1101.0
-300,-700,-1113,-292.0,-695.0,-1103.0,-291.0,-688.0,-1093.0,-307.0,-703.0,-1102.0
-300,-701,-1112,-295.0,-695.0,-1103.0,-291.0,-687.0,-1093.0,-307.0,-703.0,-1102.0
-300,-703,-1111,-297.0,-697.0,-1103.0,-291.0,-686.0,-1092.0,-307.0,-703.0,-1102.0
-300,-703,-1111,-300.0,-698.0,-1104.0,-291.0,-685.0,-1092.0,-307.0,-704.0,-1102.0
-299,-704,-1111,-302.0,-700.0,-1104.0,-290.0,-684.0,-1091.0,-307.0,-704.0,-1102.0
-298,-704,-1110,-304.0,-702.0,-1105.0,-290.0,-683.0,-1091.0,-307.0,-704.0,-1102.0
-298,-705,-1110,-306.0,-703.0,-1106.0,-290.0,-682.0,-1090.0,-307.0,-704.0,-1103.0
-297,-705,-1110,-308.0,-705.0,-1107.0,-290.0,-681.0,-1089.0,-307.0,-704.0,-1103.0
-296,-706,-1111,-311.0,-707.0,-1108.0,-289.0,-679.0,-1088.0,-307.0,-705.0,-1103.0
-296,-706,-1111,-313.0,-708.0,-1109.0,-289.0,-678.0,-1088.0,-307.0,-705.0,-1103.0
-295,-707,-1111,-315.0,-710.0,-1110.0,-289.0,-677.0,-1087.0,-307.0,-705.0,-1103.0
-294,-707,-1111,-317.0,-712.0,-1112.0,-288.0,-675.0,-1086.0,-307.0,-705.0,-1103.0
-294,-707,-1112,-319.0,-714.0,-1113.0,-288.0,-673.0,-1084.0,-307.0,-705.0,-1103.0
-294,-707,-1111,-321.0,-717.0,-1115.0,-288.0,-671.0,-1083.0,-308.0,-705.0,-1103.0
-293,-707,-1111,-323.0,-718.0,-1116.0,-287.0,-669.0,-1082.0,-307.0,-706.0,-1103.0
-291,-707,-1111,-325.0,-719.0,-1118.0,-287.0,-667.0,-1080.0,-307.0,-706.0,-1104.0
-293,-707,-1111,-326.0,-720.0,-1119.0,-286.0,-665.0,-1079.0,-307.0,-706.0,-1104.0
-293,-707,-1110,-328.0,-723.0,-1120.0,-285.0,-662.0,-1077.0,-307.0,-706.0,-1104.0
-294,-708,-1109,-330.0,-721.0,-1121.0,-285.0,-660.0,-1076.0,-307.0,-706.0,-1104.0
-295,-707,-1109,-328.0,-720.0,-1121.0,-284.0,-658.0,-1074.0,-307.0,-706.0,-1104.0
-296,-707,-1108,-328.0,-720.0,-1123.0,-283.0,-655.0,-1072.0,-307.0,-706.0,-1104.0
-296,-707,-1107,-327.0,-719.0,-1122.0,-282.0,-653.0,-1069.0,-307.0,-706.0,-1104.0
-297,-707,-1107,-326.0,-717.0,-1121.0,-282.0,-650.0,-1067.0,-307.0,-706.0,-1104.0
-298,-707,-1105,-325.0,-716.0,-1120.0,-281.0,-647.0,-1065.0,-307.0,-706.0,-1104.0
-299,-707,-1104,-323.0,-715.0,-1120.0,-280.0,-644.0,-1063.0,-307.0,-706.0,-1104.0
-301,-707,-1103,-322.0,-714.0,-1119.0,-279.0,-642.0,-1061.0,-307.0,-706.0,-1104.0
-302,-707,-1102,-321.0,-712.0,-1118.0,-278.0,-639.0,-1058.0,-307.0,-706.0,-1104.0
-304,-706,-1100,-319.0,-711.0,-1116.0,-277.0,-637.0,-1056.0,-307.0,-707.0,-1104.0
-306,-706,-1099,-318.0,-710.0,-1115.0,-276.0,-635.0,-1054.0,-307.0,-707.0,-1105.0
-307,-705,-1098,-317.0,-708.0,-1113.0,-275.0,-632.0,-1052.0,-306.0,-707.0,-1105.0
-308,-705,-1096,-315.0,-707.0,-1112.0,-275.0,-630.0,-1050.0,-306.0,-709.0,-1107.0
-310,-705,-1095,-314.0,-705.0,-1110.0,-273.0,-629.0,-1049.0,-305.0,-707.0,-1105.0
-311,-706,-1093,-312.0,-704.0,-1108.0,-275.0,-628.0,-1047.0,-305.0,-707.0,-1105.0
-312,-707,-1092,-311.0,-702.0,-1107.0,-275.0,-625.0,-1046.0,-304.0,-707.0,-1105.0
-313,-708,-1090,-309.0,-701.0,-1105.0,-275.0,-627.0,-1045.0,-304.0,-706.0,-1104.0
-313,-709,-1089,-308.0,-700.0,-1103.0,-276.0,-629.0,-1043.0,-303.0,-706.0,-1104.0
-314,-710,-1087,-307.0,-699.0,-1102.0,-277.0,-630.0,-1045.0,-302.0,-705.0,-1104.0
-315,-711,-1085,-306.0,-698.0,-1101.0,-278.0,-632.0,-1045.0,-302.0,-704.0,-1103.0
-315,-712,-1083,-305.0,-697.0,-1100.0,-280.0,-635.0,-1046.0,-301.0,-704.0,-1103.0
-316,-713,-1081,-304.0,-696.0,-1099.0,-282.0,-638.0,-1048.0,-300.0,-703.0,-1102.0
-316,-715,-1080,-304.0,-696.0,-1098.0,-284.0,-642.0,-1051.0,-299.0,-702.0,-1102.0
-317,-716,-1078,-303.0,-695.0,-1097.0,-287.0,-646.0,-1053.0,-299.0,-701.0,-1101.0
-317,-717,-1076,-301.0,-695.0,-1097.0,-289.0,-650.0,-1057.0,-296.0,-701.0,-1101.0
-318,-718,-1075,-303.0,-693.0,-1097.0,-292.0,-654.0,-1060.0,-298.0,-700.0,-1100.0
-319,-719,-1073,-304.0,-695.0,-1094.0,-294.0,-659.0,-1064.0,-299.0,-699.0,-1100.0
-320,-720,-1071,-304.0,-695.0,-1096.0,-296.0,-664.0,-1067.0,-300.0,-698.0,-1100.0
-321,-721,-1069,-304.0,-695.0,-1097.0,-298.0,-669.0,-1070.0,-301.0,-697.0,-1098.0
-322,-721,-1068,-304.0,-696.0,-1097.0,-300.0,-674.0,-1073.0,-302.0,-697.0,-1100.0
-323,-722,-1067,-305.0,-696.0,-1098.0,-302.0,-679.0,-1076.0,-303.0,-696.0,-1100.0
-323,-724,-1066,-306.0,-696.0,-1099.0,-303.0,-682.0,-1080.0,-304.0,-696.0,-1100.0
-324,-722,-1065,-307.0,-698.0,-1100.0,-305.0,-686.0,-1083.0,-305.0,-695.0,-1101.0
-324,-722,-1065,-308.0,-699.0,-1101.0,-306.0,-690.0,-1086.0,-306.0,-693.0,-1101.0
-325,-721,-1063,-309.0,-700.0,-1102.0,-306.0,-693.0,-1089.0,-306.0,-695.0,-1102.0
-325,-721,-1065,-311.0,-701.0,-1103.0,-307.0,-695.0,-1091.0,-307.0,-696.0,-1102.0
-325,-720,-1065,-312.0,-702.0,-1104.0,-307.0,-698.0,-1094.0,-307.0,-697.0,-1102.0
-327,-719,-1067,-313.0,-703.0,-1105.0,-308.0,-700.0,-1096.0,-308.0,-698.0,-1103.0
-325,-718,-1068,-314.0,-704.0,-1106.0,-308.0,-701.0,-1098.0,-308.0,-698.0,-1103.0
-325,-717,-1070,-315.0,-705.0,-1108.0,-309.0,-703.0,-1099.0,-308.0,-700.0,-1104.0
-324,-716,-1071,-316.0,-706.0,-1109.0,-308.0,-704.0,-1101.0,-309.0,-702.0,-1104.0
-324,-714,-1074,-317.0,-708.0,-1111.0,-308.0,-705.0,-1102.0,-309.0,-703.0,-1104.0
-323,-713,-1076,-318.0,-709.0,-1113.0,-308.0,-706.0,-1103.0,-309.0,-705.0,-1105.0
-321,-711,-1079,-319.0,-710.0,-1114.0,-307.0,-706.0,-1104.0,-311.0,-707.0,-1106.0
-320,-710,-1082,-319.0,-712.0,-1115.0,-307.0,-707.0,-1104.0,-309.0,-708.0,-1107.0
-318,-708,-1085,-320.0,-713.0,-1117.0,-307.0,-707.0,-1105.0,-309.0,-709.0,-1108.0
-317,-707,-1088,-322.0,-715.0,-1119.0,-307.0,-707.0,-1106.0,-308.0,-710.0,-1108.0
-316,-706,-1090,-320.0,-713.0,-1117.0,-307.0,-707.0,-1107.0,-308.0,-711.0,-1108.0
-314,-705,-1093,-320.0,-712.0,-1116.0,-307.0,-707.0,-1106.0,-306.0,-711.0,-1108.0
-313,-704,-1096,-319.0,-712.0,-1116.0,-307.0,-707.0,-1105.0,-302.0,-711.0,-1108.0
-311,-703,-1098,-318.0,-711.0,-1115.0,-307.0,-706.0,-1105.0,-297.0,-711.0,-1108.0
-309,-703,-1100,-317.0,-710.0,-1114.0,-307.0,-706.0,-1105.0,-289.0,-712.0,-1109.0
-307,-703,-1102,-317.0,-710.0,-1114.0,-307.0,-706.0,-1105.0,-282.0,-711.0,-1109.0
-306,-703,-1104,-317.0,-709.0,-1114.0,-307.0,-706.0,-1105.0,-274.0,-711.0,-1109.0
-304,-703,-1105,-317.0,-709.0,-1114.0,-307.0,-706.0,-1104.0,-267.0,-711.0,-1111.0
-303,-702,-1107,-317.0,-709.0,-1114.0,-307.0,-705.0,-1104.0,-257.0,-711.0,-1109.0
-302,-702,-1108,-317.0,-708.0,-1114.0,-307.0,-705.0,-1104.0,-249.0,-710.0,-1108.0
-301,-702,-1108,-316.0,-708.0,-1114.0,-307.0,-705.0,-1104.0,-241.0,-708.0,-1107.0
-301,-702,-1109,-315.0,-706.0,-1113.0,-307.0,-704.0,-1104.0,-234.0,-705.0,-1105.0
-301,-702,-1109,-314.0,-704.0,-1110.0,-307.0,-705.0,-1103.0,-228.0,-700.0,-1103.0
-299,-702,-1111,-313.0,-701.0,-1106.0,-307.0,-705.0,-1103.0,-224.0,-693.0,-1101.0
-301,-701,-1110,-315.0,-698.0,-1101.0,-307.0,-705.0,-1103.0,-217.0,-687.0,-1095.0
-301,-702,-1109,-319.0,-696.0,-1096.0,-307.0,-705.0,-1103.0,-225.0,-682.0,-1100.0
-301,-702,-1109,-324.0,-693.0,-1090.0,-307.0,-706.0,-1103.0,-230.0,-676.0,-1104.0
-301,-702,-1109,-330.0,-689.0,-1085.0,-307.0,-706.0,-1103.0,-235.0,-665.0,-1110.0
-302,-702,-1108,-338.0,-692.0,-1080.0,-307.0,-706.0,-1103.0,-243.0,-670.0,-1120.0
-302,-702,-1108,-347.0,-694.0,-1076.0,-307.0,-706.0,-1103.0,-249.0,-672.0,-1131.0
-302,-702,-1108,-357.0,-697.0,-1074.0,-307.0,-706.0,-1103.0,-254.0,-674.0,-1142.0
-302,-703,-1108,-366.0,-700.0,-1072.0,-307.0,-706.0,-1103.0,-259.0,-678.0,-1151.0
-302,-703,-1107,-372.0,-704.0,-1069.0,-307.0,-706.0,-1103.0,-261.0,-682.0,-1160.0
-303,-703,-1107,-377.0,-708.0,-1071.0,-307.0,-706.0,-1103.0,-265.0,-685.0,-1167.0
-303,-703,-1107,-384.0,-712.0,-1073.0,-307.0,-706.0,-1103.0,-267.0,-689.0,-1173.0
-304,-703,-1106,-389.0,-715.0,-1074.0,-307.0,-706.0,-1103.0,-270.0,-694.0,-1176.0
-304,-703,-1106,-391.0,-718.0,-1076.0,-307.0,-706.0,-1103.0,-274.0,-701.0,-1177.0
-305,-703,-1106,-394.0,-721.0,-1078.0,-307.0,-706.0,-1103.0,-278.0,-708.0,-1177.0
-305,-703,-1105,-392.0,-723.0,-1082.0,-306.0,-706.0,-1103.0,-283.0,-714.0,-1177.0
-306,-702,-1105,-390.0,-725.0,-1084.0,-306.0,-706.0,-1102.0,-289.0,-721.0,-1178.0
-306,-702,-1105,-388.0,-727.0,-1088.0,-306.0,-706.0,-1101.0,-294.0,-727.0,-1179.0
-307,-702,-1104,-385.0,-728.0,-1091.0,-305.0,-706.0,-1101.0,-299.0,-733.0,-1180.0
-307,-702,-1104,-380.0,-729.0,-1094.0,-303.0,-706.0,-1100.0,-303.0,-737.0,-1184.0
-307,-702,-1104,-375.0,-733.0,-1098.0,-305.0,-707.0,-1100.0,-306.0,-742.0,-1178.0
-307,-701,-1103,-369.0,-731.0,-1100.0,-305.0,-707.0,-1099.0,-308.0,-739.0,-1174.0
-307,-701,-1104,-363.0,-729.0,-1104.0,-306.0,-707.0,-1099.0,-310.0,-736.0,-1169.0
-307,-701,-1104,-357.0,-728.0,-1106.0,-307.0,-708.0,-1099.0,-310.0,-734.0,-1161.0
-308,-701,-1104,-350.0,-725.0,-1108.0,-308.0,-708.0,-1098.0,-311.0,-731.0,-1154.0
-307,-701,-1105,-343.0,-722.0,-1109.0,-309.0,-709.0,-1096.0,-313.0,-727.0,-1146.0
-307,-701,-1105,-337.0,-719.0,-1111.0,-310.0,-710.0,-1098.0,-311.0,-723.0,-1138.0
-307,-701,-1105,-330.0,-716.0,-1113.0,-311.0,-711.0,-1098.0,-310.0,-720.0,-1129.0
-307,-699,-1105,-325.0,-713.0,-1111.0,-312.0,-712.0,-1099.0,-309.0,-717.0,-1122.0
-307,-701,-1105,-320.0,-710.0,-1110.0,-312.0,-712.0,-1099.0,-308.0,-715.0,-1116.0
-307,-701,-1106,-316.0,-708.0,-1109.0,-313.0,-713.0,-1099.0,-307.0,-713.0,-1112.0
-307,-701,-1106,-313.0,-707.0,-1109.0,-315.0,-713.0,-1100.0,-307.0,-712.0,-1108.0
-306,-701,-1106,-311.0,-706.0,-1108.0,-313.0,-714.0,-1101.0,-307.0,-712.0,-1106.0
-306,-701,-1107,-309.0,-705.0,-1107.0,-312.0,-714.0,-1102.0,-306.0,-711.0,-1105.0
-305,-701,-1107,-308.0,-704.0,-1107.0,-312.0,-715.0,-1102.0,-306.0,-711.0,-1104.0
-305,-701,-1108,-307.0,-703.0,-1106.0,-311.0,-715.0,-1103.0,-307.0,-710.0,-1103.0
-304,-702,-1108,-306.0,-702.0,-1105.0,-310.0,-715.0,-1104.0,-307.0,-710.0,-1103.0
-304,-702,-1108,-305.0,-701.0,-1105.0,-310.0,-715.0,-1104.0,-307.0,-709.0,-1102.0
-303,-702,-1110,-304.0,-700.0,-1104.0,-309.0,-715.0,-1105.0,-308.0,-708.0,-1102.0
-303,-702,-1108,-303.0,-699.0,-1102.0,-308.0,-716.0,-1106.0,-308.0,-707.0,-1102.0
-302,-703,-1108,-302.0,-697.0,-1104.0,-308.0,-716.0,-1107.0,-310.0,-706.0,-1101.0
-302,-703,-1108,-302.0,-699.0,-1104.0,-307.0,-716.0,-1107.0,-308.0,-706.0,-1101.0
-300,-704,-1108,-302.0,-699.0,-1105.0,-307.0,-716.0,-1108.0,-308.0,-706.0,-1101.0
-302,-704,-1107,-302.0,-700.0,-1105.0,-306.0,-716.0,-1108.0,-308.0,-705.0,-1101.0
-302,-705,-1107,-302.0,-700.0,-1106.0,-306.0,-717.0,-1108.0,-307.0,-705.0,-1101.0
-303,-705,-1106,-302.0,-701.0,-1106.0,-305.0,-716.0,-1108.0,-307.0,-705.0,-1100.0
-303,-706,-1106,-302.0,-701.0,-1107.0,-305.0,-716.0,-1108.0,-307.0,-705.0,-1100.0
-304,-706,-1105,-302.0,-702.0,-1107.0,-304.0,-716.0,-1109.0,-307.0,-706.0,-1100.0
-304,-707,-1105,-302.0,-702.0,-1107.0,-304.0,-716.0,-1108.0,-307.0,-707.0,-1100.0
-305,-706,-1104,-302.0,-704.0,-1108.0,-303.0,-716.0,-1108.0,-308.0,-706.0,-1099.0
-305,-706,-1104,-302.0,-702.0,-1107.0,-303.0,-716.0,-1108.0,-308.0,-706.0,-1099.0
-306,-705,-1103,-301.0,-702.0,-1107.0,-302.0,-715.0,-1108.0,-310.0,-705.0,-1098.0
-306,-705,-1103,-301.0,-702.0,-1107.0,-302.0,-714.0,-1108.0,-308.0,-705.0,-1098.0
-307,-704,-1101,-300.0,-701.0,-1107.0,-301.0,-711.0,-1106.0,-308.0,-704.0,-1097.0
-307,-703,-1103,-299.0,-701.0,-1107.0,-300.0,-708.0,-1103.0,-307.0,-704.0,-1096.0
-307,-703,-1103,-299.0,-701.0,-1106.0,-296.0,-705.0,-1101.0,-307.0,-703.0,-1096.0
-308,-702,-1104,-298.0,-700.0,-1106.0,-305.0,-704.0,-1099.0,-307.0,-702.0,-1095.0
-310,-701,-1105,-298.0,-700.0,-1106.0,-312.0,-712.0,-1093.0,-307.0,-702.0,-1094.0
-308,-701,-1106,-297.0,-699.0,-1106.0,-323.0,-723.0,-1105.0,-307.0,-701.0,-1093.0
-308,-701,-1107,-296.0,-699.0,-1106.0,-341.0,-739.0,-1112.0,-308.0,-700.0,-1093.0
-307,-701,-1108,-295.0,-698.0,-1105.0,-358.0,-755.0,-1122.0,-308.0,-699.0,-1092.0
-306,-700,-1109,-293.0,-698.0,-1105.0,-375.0,-777.0,-1137.0,-309.0,-697.0,-1091.0
-305,-700,-1110,-292.0,-697.0,-1104.0,-401.0,-802.0,-1155.0,-309.0,-696.0,-1090.0
-304,-700,-1112,-290.0,-696.0,-1104.0,-421.0,-824.0,-1171.0,-311.0,-695.0,-1089.0
-302,-700,-1113,-289.0,-695.0,-1103.0,-443.0,-848.0,-1187.0,-309.0,-693.0,-1087.0
-301,-700,-1115,-287.0,-694.0,-1103.0,-460.0,-869.0,-1203.0,-309.0,-692.0,-1086.0
-300,-700,-1116,-285.0,-692.0,-1102.0,-472.0,-892.0,-1215.0,-309.0,-690.0,-1085.0
-299,-700,-1116,-283.0,-691.0,-1101.0,-483.0,-907.0,-1226.0,-308.0,-689.0,-1083.0
-297,-700,-1117,-281.0,-689.0,-1100.0,-500.0,-918.0,-1232.0,-308.0,-688.0,-1081.0
-299,-699,-1119,-279.0,-687.0,-1100.0,-488.0,-928.0,-1243.0,-307.0,-686.0,-1080.0
-300,-699,-1118,-277.0,-685.0,-1099.0,-484.0,-940.0,-1238.0,-307.0,-685.0,-1078.0
-300,-699,-1117,-274.0,-683.0,-1097.0,-475.0,-928.0,-1235.0,-307.0,-683.0,-1076.0
-300,-699,-1117,-272.0,-681.0,-1096.0,-465.0,-921.0,-1232.0,-307.0,-681.0,-1074.0
-300,-699,-1117,-271.0,-680.0,-1095.0,-454.0,-913.0,-1227.0,-307.0,-679.0,-1073.0
-300,-699,-1117,-269.0,-678.0,-1093.0,-444.0,-901.0,-1222.0,-306.0,-678.0,-1071.0
-300,-698,-1118,-267.0,-676.0,-1092.0,-431.0,-883.0,-1215.0,-306.0,-676.0,-1070.0
-299,-698,-1119,-265.0,-675.0,-1091.0,-419.0,-867.0,-1206.0,-305.0,-675.0,-1068.0
-297,-696,-1118,-264.0,-673.0,-1090.0,-405.0,-847.0,-1197.0,-304.0,-673.0,-1067.0
-299,-698,-1117,-263.0,-672.0,-1089.0,-393.0,-829.0,-1188.0,-304.0,-672.0,-1066.0
-301,-698,-1116,-261.0,-671.0,-1088.0,-380.0,-812.0,-1178.0,-303.0,-671.0,-1065.0
-303,-698,-1114,-263.0,-670.0,-1087.0,-367.0,-793.0,-1167.0,-303.0,-670.0,-1064.0
-307,-699,-1112,-264.0,-669.0,-1086.0,-356.0,-775.0,-1157.0,-302.0,-669.0,-1064.0
-313,-699,-1107,-265.0,-667.0,-1085.0,-344.0,-759.0,-1142.0,-302.0,-668.0,-1061.0
-319,-697,-1101,-266.0,-669.0,-1085.0,-334.0,-744.0,-1133.0,-302.0,-667.0,-1064.0
-325,-694,-1097,-268.0,-670.0,-1083.0,-324.0,-731.0,-1125.0,-299.0,-665.0,-1064.0
-332,-689,-1093,-270.0,-671.0,-1085.0,-317.0,-721.0,-1117.0,-301.0,-667.0,-1065.0
-338,-683,-1083,-273.0,-673.0,-1085.0,-311.0,-714.0,-1112.0,-302.0,-667.0,-1066.0
-344,-677,-1091,-276.0,-674.0,-1086.0,-307.0,-709.0,-1107.0,-302.0,-669.0,-1067.0
-350,-668,-1096,-278.0,-676.0,-1087.0,-304.0,-705.0,-1104.0,-302.0,-670.0,-1069.0
-355,-656,-1103,-281.0,-678.0,-1088.0,-302.0,-702.0,-1102.0,-302.0,-671.0,-1071.0
-357,-648,-1110,-283.0,-679.0,-1089.0,-301.0,-700.0,-1100.0,-303.0,-673.0,-1073.0
-359,-641,-1116,-286.0,-681.0,-1089.0,-300.0,-698.0,-1099.0,-303.0,-675.0,-1075.0
-363,-634,-1122,-288.0,-682.0,-1090.0,-299.0,-697.0,-1098.0,-304.0,-676.0,-1077.0
-359,-628,-1128,-290.0,-684.0,-1091.0,-299.0,-696.0,-1097.0,-304.0,-679.0,-1080.0
-355,-624,-1134,-292.0,-685.0,-1092.0,-299.0,-695.0,-1097.0,-304.0,-681.0,-1082.0
-349,-620,-1139,-293.0,-685.0,-1092.0,-298.0,-694.0,-1096.0,-304.0,-684.0,-1085.0
-344,-625,-1144,-295.0,-686.0,-1093.0,-298.0,-693.0,-1096.0,-304.0,-686.0,-1087.0
-337,-627,-1148,-296.0,-687.0,-1094.0,-296.0,-692.0,-1095.0,-305.0,-688.0,-1090.0
-331,-630,-1153,-297.0,-687.0,-1094.0,-298.0,-692.0,-1095.0,-305.0,-691.0,-1092.0
-324,-632,-1158,-297.0,-688.0,-1094.0,-298.0,-691.0,-1094.0,-305.0,-693.0,-1094.0
-318,-634,-1163,-298.0,-688.0,-1094.0,-299.0,-690.0,-1093.0,-305.0,-695.0,-1095.0
-312,-635,-1166,-299.0,-688.0,-1095.0,-299.0,-690.0,-1093.0,-304.0,-697.0,-1097.0
-309,-637,-1175,-300.0,-688.0,-1095.0,-299.0,-689.0,-1092.0,-304.0,-698.0,-1099.0
-306,-639,-1170,-300.0,-689.0,-1095.0,-299.0,-688.0,-1092.0,-304.0,-700.0,-1100.0
-305,-642,-1168,-301.0,-689.0,-1096.0,-298.0,-687.0,-1091.0,-302.0,-701.0,-1101.0
-304,-647,-1164,-302.0,-689.0,-1096.0,-298.0,-686.0,-1091.0,-304.0,-702.0,-1102.0
-303,-652,-1160,-302.0,-690.0,-1097.0,-298.0,-684.0,-1090.0,-304.0,-703.0,-1102.0
-302,-659,-1153,-303.0,-691.0,-1097.0,-298.0,-683.0,-1089.0,-304.0,-703.0,-1103.0
-300,-668,-1147,-304.0,-691.0,-1098.0,-298.0,-682.0,-1089.0,-304.0,-704.0,-1103.0
-299,-675,-1141,-304.0,-692.0,-1099.0,-297.0,-680.0,-1088.0,-305.0,-705.0,-1103.0
-298,-682,-1136,-305.0,-693.0,-1100.0,-297.0,-679.0,-1087.0,-305.0,-704.0,-1103.0
-297,-688,-1130,-306.0,-694.0,-1100.0,-296.0,-677.0,-1086.0,-305.0,-704.0,-1103.0
-296,-693,-1126,-307.0,-695.0,-1101.0,-296.0,-676.0,-1085.0,-305.0,-703.0,-1103.0
-296,-696,-1122,-307.0,-696.0,-1102.0,-295.0,-674.0,-1084.0,-305.0,-703.0,-1103.0
-296,-698,-1120,-308.0,-697.0,-1103.0,-294.0,-672.0,-1083.0,-305.0,-703.0,-1102.0
-296,-700,-1119,-309.0,-698.0,-1103.0,-294.0,-670.0,-1082.0,-305.0,-703.0,-1102.0
-296,-700,-1118,-309.0,-699.0,-1104.0,-293.0,-668.0,-1080.0,-305.0,-703.0,-1102.0
-295,-701,-1118,-310.0,-700.0,-1105.0,-292.0,-665.0,-1079.0,-305.0,-703.0,-1102.0
-293,-702,-1117,-311.0,-700.0,-1106.0,-291.0,-663.0,-1077.0,-305.0,-703.0,-1102.0
-295,-702,-1116,-312.0,-701.0,-1107.0,-290.0,-660.0,-1075.0,-305.0,-703.0,-1102.0
-296,-702,-1116,-312.0,-701.0,-1107.0,-290.0,-658.0,-1074.0,-305.0,-703.0,-1102.0
-296,-703,-1115,-312.0,-701.0,-1107.0,-289.0,-656.0,-1072.0,-305.0,-703.0,-1101.0
-296,-703,-1114,-312.0,-701.0,-1107.0,-287.0,-653.0,-1070.0,-304.0,-703.0,-1102.0
-297,-703,-1113,-312.0,-701.0,-1107.0,-286.0,-650.0,-1068.0,-304.0,-703.0,-1102.0
-297,-703,-1113,-306.0,-704.0,-1104.0,-285.0,-647.0,-1066.0,-304.0,-703.0,-1102.0
-298,-703,-1112,-306.0,-704.0,-1104.0,-284.0,-644.0,-1063.0,-302.0,-703.0,-1102.0
-298,-703,-1111,-306.0,-704.0,-1104.0,-283.0,-642.0,-1061.0,-304.0,-703.0,-1102.0
-299,-703,-1111,-306.0,-704.0,-1104.0,-282.0,-640.0,-1059.0,-304.0,-703.0,-1102.0
-299,-703,-1110,-306.0,-704.0,-1104.0,-281.0,-638.0,-1056.0,-304.0,-703.0,-1102.0
-300,-703,-1109,-306.0,-704.0,-1104.0,-280.0,-636.0,-1054.0,-305.0,-703.0,-1103.0
-300,-703,-1108,-306.0,-704.0,-1104.0,-279.0,-635.0,-1052.0,-305.0,-703.0,-1103.0
-301,-703,-1108,-306.0,-704.0,-1104.0,-278.0,-634.0,-1049.0,-305.0,-703.0,-1103.0
-302,-703,-1107,-306.0,-704.0,-1104.0,-277.0,-633.0,-1048.0,-305.0,-703.0,-1103.0
-303,-703,-1106,-306.0,-704.0,-1104.0,-275.0,-631.0,-1047.0,-305.0,-703.0,-1103.0
-304,-703,-1105,-306.0,-704.0,-1104.0,-277.0,-633.0,-1046.0,-305.0,-703.0,-1103.0
-305,-703,-1104,-306.0,-704.0,-1104.0,-277.0,-634.0,-1044.0,-305.0,-704.0,-1103.0
-306,-703,-1103,-306.0,-704.0,-1104.0,-279.0,-636.0,-1042.0,-305.0,-704.0,-1103.0
-306,-703,-1101,-306.0,-704.0,-1104.0,-279.0,-638.0,-1044.0,-305.0,-704.0,-1103.0
-307,-703,-1100,-306.0,-704.0,-1104.0,-281.0,-640.0,-1046.0,-305.0,-704.0,-1103.0
-308,-703,-1099,-306.0,-704.0,-1104.0,-282.0,-643.0,-1048.0,-305.0,-705.0,-1103.0
-309,-704,-1097,-306.0,-704.0,-1104.0,-284.0,-646.0,-1050.0,-304.0,-705.0,-1104.0
-310,-704,-1096,-306.0,-704.0,-1104.0,-287.0,-650.0,-1053.0,-304.0,-705.0,-1104.0
-310,-704,-1095,-306.0,-704.0,-1104.0,-289.0,-654.0,-1057.0,-302.0,-705.0,-1104.0
-311,-705,-1093,-306.0,-704.0,-1104.0,-292.0,-657.0,-1061.0,-304.0,-705.0,-1104.0
-312,-705,-1092,-306.0,-704.0,-1104.0,-295.0,-662.0,-1064.0,-304.0,-705.0,-1104.0
-313,-706,-1090,-306.0,-704.0,-1104.0,-298.0,-665.0,-1068.0,-304.0,-705.0,-1105.0
-314,-707,-1089,-306.0,-704.0,-1104.0,-301.0,-668.0,-1071.0,-305.0,-705.0,-1105.0
-315,-708,-1087,-306.0,-704.0,-1104.0,-304.0,-670.0,-1075.0,-305.0,-706.0,-1105.0
-316,-709,-1085,-306.0,-704.0,-1104.0,-307.0,-673.0,-1077.0,-305.0,-706.0,-1105.0
-317,-710,-1083,-306.0,-704.0,-1104.0,-310.0,-675.0,-1080.0,-305.0,-706.0,-1106.0
-318,-711,-1081,-306.0,-704.0,-1104.0,-313.0,-676.0,-1082.0,-306.0,-706.0,-1106.0
-319,-712,-1079,-306.0,-704.0,-1104.0,-315.0,-679.0,-1084.0,-306.0,-706.0,-1106.0
-320,-713,-1077,-306.0,-704.0,-1104.0,-315.0,-682.0,-1086.0,-306.0,-706.0,-1106.0
-321,-714,-1075,-306.0,-704.0,-1104.0,-316.0,-685.0,-1088.0,-306.0,-706.0,-1106.0
-322,-716,-1073,-306.0,-704.0,-1104.0,-315.0,-689.0,-1089.0,-306.0,-706.0,-1106.0
-323,-717,-1070,-306.0,-704.0,-1104.0,-315.0,-693.0,-1090.0,-306.0,-706.0,-1106.0
-324,-718,-1068,-306.0,-704.0,-1104.0,-314.0,-698.0,-1091.0,-305.0,-707.0,-1106.0
-325,-719,-1066,-306.0,-704.0,-1104.0,-313.0,-702.0,-1093.0,-305.0,-707.0,-1107.0
-326,-720,-1064,-306.0,-704.0,-1104.0,-313.0,-706.0,-1094.0,-305.0,-707.0,-1106.0
-327,-720,-1063,-306.0,-704.0,-1104.0,-312.0,-710.0,-1095.0,-305.0,-707.0,-1106.0
-328,-721,-1061,-306.0,-704.0,-1104.0,-311.0,-713.0,-1096.0,-304.0,-707.0,-1106.0
-329,-722,-1059,-306.0,-704.0,-1104.0,-310.0,-715.0,-1097.0,-304.0,-708.0,-1106.0
-329,-722,-1058,-306.0,-704.0,-1104.0,-308.0,-717.0,-1099.0,-304.0,-709.0,-1106.0
-330,-723,-1058,-306.0,-704.0,-1104.0,-307.0,-717.0,-1099.0,-303.0,-708.0,-1106.0
-330,-722,-1055,-306.0,-704.0,-1104.0,-305.0,-717.0,-1100.0,-303.0,-707.0,-1106.0
-330,-722,-1057,-306.0,-704.0,-1104.0,-304.0,-717.0,-1101.0,-302.0,-707.0,-1106.0
-332,-722,-1058,-306.0,-704.0,-1104.0,-302.0,-717.0,-1102.0,-302.0,-706.0,-1105.0
-330,-721,-1058,-306.0,-704.0,-1104.0,-300.0,-717.0,-1102.0,-301.0,-705.0,-1105.0
-330,-720,-1060,-306.0,-704.0,-1104.0,-298.0,-717.0,-1103.0,-301.0,-705.0,-1104.0
-330,-719,-1061,-306.0,-704.0,-1104.0,-296.0,-717.0,-1104.0,-300.0,-704.0,-1104.0
-330,-718,-1063,-306.0,-704.0,-1104.0,-294.0,-717.0,-1104.0,-299.0,-703.0,-1103.0
-329,-716,-1065,-306.0,-704.0,-1104.0,-293.0,-717.0,-1105.0,-299.0,-702.0,-1103.0
-328,-715,-1068,-306.0,-704.0,-1104.0,-292.0,-718.0,-1105.0,-298.0,-701.0,-1102.0
-328,-713,-1070,-306.0,-704.0,-1104.0,-290.0,-718.0,-1106.0,-298.0,-700.0,-1102.0
-327,-712,-1073,-306.0,-704.0,-1104.0,-292.0,-719.0,-1107.0,-296.0,-700.0,-1101.0
-325,-710,-1075,-306.0,-704.0,-1104.0,-294.0,-721.0,-1108.0,-298.0,-699.0,-1101.0
-324,-709,-1078,-306.0,-704.0,-1104.0,-294.0,-719.0,-1109.0,-298.0,-698.0,-1101.0
-322,-707,-1081,-306.0,-704.0,-1104.0,-296.0,-719.0,-1110.0,-299.0,-697.0,-1100.0
-321,-706,-1084,-306.0,-704.0,-1104.0,-298.0,-718.0,-1111.0,-300.0,-696.0,-1100.0
-319,-705,-1087,-306.0,-704.0,-1104.0,-300.0,-717.0,-1112.0,-301.0,-696.0,-1098.0
-317,-704,-1089,-306.0,-704.0,-1104.0,-302.0,-717.0,-1113.0,-302.0,-695.0,-1100.0
-316,-704,-1091,-306.0,-704.0,-1104.0,-305.0,-717.0,-1113.0,-304.0,-693.0,-1100.0
-315,-703,-1093,-306.0,-704.0,-1104.0,-307.0,-718.0,-1114.0,-305.0,-695.0,-1101.0
-313,-703,-1095,-306.0,-704.0,-1104.0,-310.0,-719.0,-1115.0,-305.0,-695.0,-1101.0
-312,-703,-1097,-306.0,-704.0,-1104.0,-313.0,-721.0,-1116.0,-306.0,-696.0,-1102.0
-311,-703,-1098,-306.0,-704.0,-1104.0,-315.0,-722.0,-1116.0,-307.0,-696.0,-1102.0
-310,-703,-1100,-306.0,-704.0,-1104.0,-318.0,-724.0,-1117.0,-307.0,-697.0,-1103.0
-309,-703,-1101,-306.0,-704.0,-1104.0,-321.0,-725.0,-1118.0,-307.0,-699.0,-1104.0
-308,-703,-1102,-306.0,-704.0,-1104.0,-323.0,-726.0,-1117.0,-307.0,-700.0,-1105.0
-307,-702,-1103,-306.0,-704.0,-1104.0,-325.0,-727.0,-1116.0,-308.0,-702.0,-1106.0
-306,-702,-1104,-306.0,-704.0,-1104.0,-328.0,-728.0,-1116.0,-308.0,-704.0,-1107.0
-306,-702,-1104,-306.0,-704.0,-1104.0,-330.0,-728.0,-1116.0,-308.0,-706.0,-1108.0
-306,-702,-1105,-306.0,-704.0,-1104.0,-332.0,-729.0,-1115.0,-309.0,-708.0,-1109.0
-305,-702,-1105,-306.0,-704.0,-1104.0,-333.0,-728.0,-1115.0,-308.0,-710.0,-1110.0
-305,-702,-1105,-306.0,-704.0,-1104.0,-335.0,-728.0,-1114.0,-308.0,-711.0,-1110.0
-305,-702,-1106,-306.0,-704.0,-1104.0,-336.0,-727.0,-1113.0,-308.0,-713.0,-1111.0
-305,-700,-1106,-306.0,-704.0,-1104.0,-338.0,-727.0,-1113.0,-308.0,-713.0,-1111.0
-305,-702,-1107,-306.0,-704.0,-1104.0,-339.0,-727.0,-1112.0,-306.0,-714.0,-1111.0
-305,-702,-1106,-306.0,-704.0,-1104.0,-341.0,-726.0,-1112.0,-303.0,-714.0,-1111.0
-305,-702,-1106,-306.0,-704.0,-1104.0,-342.0,-726.0,-1112.0,-301.0,-715.0,-1111.0
-305,-702,-1106,-306.0,-704.0,-1104.0,-343.0,-725.0,-1111.0,-294.0,-715.0,-1112.0
-306,-702,-1105,-306.0,-704.0,-1104.0,-343.0,-724.0,-1111.0,-286.0,-716.0,-1112.0
-306,-702,-1105,-306.0,-704.0,-1104.0,-344.0,-724.0,-1111.0,-279.0,-717.0,-1113.0
-306,-702,-1105,-306.0,-704.0,-1104.0,-344.0,-722.0,-1111.0,-270.0,-716.0,-1112.0
-307,-703,-1105,-306.0,-704.0,-1104.0,-346.0,-721.0,-1112.0,-261.0,-716.0,-1112.0
-307,-703,-1104,-306.0,-704.0,-1104.0,-345.0,-719.0,-1112.0,-252.0,-715.0,-1111.0
-307,-703,-1104,-306.0,-704.0,-1104.0,-344.0,-717.0,-1113.0,-243.0,-712.0,-1110.0
-309,-703,-1104,-306.0,-704.0,-1104.0,-343.0,-715.0,-1114.0,-236.0,-709.0,-1108.0
-307,-703,-1104,-306.0,-704.0,-1104.0,-343.0,-714.0,-1114.0,-232.0,-703.0,-1107.0
-307,-703,-1101,-306.0,-704.0,-1104.0,-342.0,-712.0,-1115.0,-223.0,-699.0,-1105.0
-307,-703,-1103,-306.0,-704.0,-1104.0,-341.0,-711.0,-1115.0,-228.0,-690.0,-1101.0
-307,-703,-1104,-306.0,-704.0,-1104.0,-340.0,-711.0,-1116.0,-232.0,-683.0,-1096.0
-306,-703,-1104,-306.0,-704.0,-1104.0,-339.0,-710.0,-1116.0,-238.0,-677.0,-1105.0
-306,-703,-1105,-306.0,-704.0,-1104.0,-339.0,-710.0,-1117.0,-244.0,-666.0,-1109.0
-305,-703,-1105,-306.0,-704.0,-1104.0,-338.0,-709.0,-1116.0,-250.0,-671.0,-1119.0
-305,-703,-1106,-306.0,-704.0,-1104.0,-339.0,-708.0,-1116.0,-256.0,-673.0,-1129.0
-304,-703,-1106,-306.0,-704.0,-1104.0,-339.0,-706.0,-1116.0,-260.0,-676.0,-1138.0
-304,-703,-1106,-306.0,-704.0,-1104.0,-341.0,-705.0,-1115.0,-265.0,-681.0,-1148.0
-304,-703,-1106,-306.0,-704.0,-1104.0,-339.0,-704.0,-1114.0,-268.0,-684.0,-1156.0
-304,-703,-1106,-306.0,-704.0,-1104.0,-338.0,-703.0,-1113.0,-270.0,-689.0,-1161.0
-303,-703,-1106,-306.0,-704.0,-1104.0,-337.0,-702.0,-1112.0,-273.0,-694.0,-1167.0
-303,-703,-1107,-306.0,-704.0,-1104.0,-336.0,-702.0,-1111.0,-275.0,-699.0,-1170.0
-303,-704,-1107,-306.0,-704.0,-1104.0,-335.0,-701.0,-1110.0,-279.0,-705.0,-1170.0
-303,-704,-1107,-306.0,-704.0,-1104.0,-333.0,-700.0,-1109.0,-284.0,-711.0,-1170.0
-303,-704,-1107,-306.0,-704.0,-1104.0,-333.0,-698.0,-1108.0,-289.0,-719.0,-1170.0
-302,-704,-1107,-306.0,-704.0,-1104.0,-333.0,-696.0,-1107.0,-294.0,-725.0,-1170.0
-302,-704,-1108,-306.0,-704.0,-1104.0,-334.0,-694.0,-1105.0,-299.0,-731.0,-1172.0
-300,-704,-1107,-306.0,-704.0,-1104.0,-336.0,-691.0,-1103.0,-303.0,-736.0,-1176.0
-302,-704,-1107,-306.0,-704.0,-1104.0,-334.0,-687.0,-1101.0,-306.0,-740.0,-1174.0
-302,-704,-1107,-306.0,-704.0,-1104.0,-333.0,-683.0,-1098.0,-308.0,-744.0,-1172.0
-302,-705,-1107,-306.0,-704.0,-1104.0,-333.0,-680.0,-1095.0,-310.0,-742.0,-1169.0
-303,-705,-1107,-306.0,-704.0,-1104.0,-338.0,-674.0,-1091.0,-311.0,-740.0,-1164.0
-303,-705,-1106,-306.0,-704.0,-1104.0,-351.0,-691.0,-1094.0,-312.0,-738.0,-1158.0
-303,-705,-1105,-306.0,-704.0,-1104.0,-365.0,-704.0,-1101.0,-313.0,-735.0,-1151.0
-303,-705,-1105,-306.0,-704.0,-1104.0,-383.0,-724.0,-1112.0,-312.0,-732.0,-1143.0
-304,-705,-1104,-306.0,-704.0,-1104.0,-404.0,-745.0,-1123.0,-311.0,-730.0,-1135.0
-304,-706,-1104,-306.0,-704.0,-1104.0,-426.0,-769.0,-1142.0,-313.0,-728.0,-1128.0
-305,-705,-1103,-306.0,-704.0,-1104.0,-449.0,-795.0,-1160.0,-312.0,-726.0,-1122.0
-305,-705,-1103,-306.0,-704.0,-1104.0,-472.0,-819.0,-1176.0,-311.0,-724.0,-1117.0
-306,-705,-1103,-306.0,-704.0,-1104.0,-491.0,-838.0,-1192.0,-311.0,-723.0,-1114.0
-306,-705,-1102,-306.0,-704.0,-1104.0,-506.0,-857.0,-1207.0,-310.0,-721.0,-1112.0
-307,-705,-1101,-306.0,-704.0,-1104.0,-518.0,-877.0,-1218.0,-298.0,-720.0,-1111.0
-307,-705,-1102,-306.0,-704.0,-1104.0,-540.0,-888.0,-1225.0,-298.0,-720.0,-1110.0
-308,-705,-1102,-306.0,-704.0,-1104.0,-531.0,-897.0,-1231.0,-296.0,-719.0,-1109.0
-307,-704,-1103,-306.0,-704.0,-1104.0,-525.0,-908.0,-1235.0,-298.0,-718.0,-1108.0
-307,-704,-1103,-306.0,-704.0,-1104.0,-517.0,-916.0,-1232.0,-298.0,-718.0,-1108.0
-307,-704,-1104,-306.0,-704.0,-1104.0,-507.0,-906.0,-1230.0,-298.0,-717.0,-1108.0
-306,-703,-1104,-306.0,-704.0,-1104.0,-496.0,-899.0,-1227.0,-298.0,-717.0,-1107.0
-306,-703,-1105,-306.0,-704.0,-1104.0,-483.0,-888.0,-1222.0,-299.0,-716.0,-1107.0
-305,-703,-1106,-306.0,-704.0,-1104.0,-471.0,-876.0,-1216.0,-299.0,-716.0,-1108.0
-304,-703,-1107,-306.0,-704.0,-1104.0,-456.0,-857.0,-1209.0,-300.0,-715.0,-1108.0
-303,-703,-1108,-306.0,-704.0,-1104.0,-444.0,-842.0,-1201.0,-300.0,-706.0,-1109.0
-301,-703,-1109,-306.0,-704.0,-1104.0,-429.0,-823.0,-1190.0,-301.0,-706.0,-1109.0
-300,-703,-1110,-306.0,-704.0,-1104.0,-417.0,-803.0,-1180.0,-301.0,-706.0,-1110.0
-298,-703,-1112,-306.0,-704.0,-1104.0,-403.0,-783.0,-1169.0,-302.0,-706.0,-1109.0
-297,-703,-1114,-306.0,-704.0,-1104.0,-391.0,-768.0,-1158.0,-302.0,-706.0,-1109.0
-296,-703,-1114,-306.0,-704.0,-1104.0,-379.0,-750.0,-1148.0,-303.0,-706.0,-1109.0
-294,-703,-1115,-306.0,-704.0,-1104.0,-366.0,-737.0,-1139.0,-303.0,-706.0,-1108.0
-296,-703,-1116,-306.0,-704.0,-1104.0,-356.0,-725.0,-1131.0,-303.0,-706.0,-1108.0
-296,-703,-1116,-306.0,-704.0,-1104.0,-345.0,-714.0,-1123.0,-304.0,-706.0,-1107.0
-297,-702,-1117,-306.0,-704.0,-1104.0,-336.0,-705.0,-1118.0,-304.0,-706.0,-1107.0
-297,-702,-1116,-306.0,-704.0,-1104.0,-330.0,-699.0,-1114.0,-305.0,-705.0,-1106.0
-298,-702,-1116,-306.0,-704.0,-1104.0,-326.0,-689.0,-1111.0,-306.0,-705.0,-1105.0
-298,-701,-1116,-306.0,-704.0,-1104.0,-311.0,-704.0,-1110.0,-306.0,-705.0,-1105.0
-299,-701,-1115,-306.0,-704.0,-1104.0,-310.0,-705.0,-1110.0,-306.0,-706.0,-1104.0
-299,-701,-1115,-306.0,-704.0,-1104.0,-309.0,-705.0,-1112.0,-306.0,-706.0,-1103.0
-296,-701,-1115,-306.0,-704.0,-1104.0,-308.0,-705.0,-1110.0,-306.0,-706.0,-1102.0
-299,-701,-1115,-306.0,-704.0,-1104.0,-307.0,-704.0,-1110.0,-306.0,-707.0,-1101.0
-301,-701,-1114,-306.0,-704.0,-1104.0,-306.0,-704.0,-1109.0,-306.0,-707.0,-1100.0
-304,-701,-1111,-306.0,-704.0,-1104.0,-305.0,-702.0,-1109.0,-306.0,-708.0,-1099.0
-309,-700,-1108,-306.0,-704.0,-1104.0,-303.0,-704.0,-1109.0,-306.0,-708.0,-1098.0
-315,-699,-1104,-306.0,-704.0,-1104.0,-305.0,-704.0,-1110.0,-306.0,-709.0,-1097.0
-321,-697,-1099,-306.0,-704.0,-1104.0,-306.0,-705.0,-1110.0,-306.0,-703.0,-1103.0
-328,-694,-1095,-306.0,-704.0,-1104.0,-306.0,-706.0,-1111.0,-306.0,-703.0,-1103.0
-335,-687,-1092,-306.0,-704.0,-1104.0,-306.0,-706.0,-1111.0,-306.0,-703.0,-1103.0
-341,-681,-1085,-306.0,-704.0,-1104.0,-306.0,-706.0,-1111.0,-306.0,-703.0,-1103.0
-347,-672,-1092,-306.0,-704.0,-1104.0,-306.0,-706.0,-1111.0,-306.0,-703.0,-1103.0
-352,-664,-1098,-306.0,-704.0,-1104.0,-305.0,-706.0,-1112.0,-306.0,-703.0,-1103.0
-355,-658,-1103,-306.0,-704.0,-1104.0,-304.0,-706.0,-1111.0,-306.0,-703.0,-1103.0
-358,-652,-1111,-306.0,-704.0,-1104.0,-304.0,-705.0,-1111.0,-306.0,-703.0,-1103.0
-361,-639,-1118,-306.0,-704.0,-1104.0,-303.0,-705.0,-1111.0,-306.0,-703.0,-1103.0
-363,-630,-1125,-306.0,-704.0,-1104.0,-302.0,-705.0,-1111.0,-306.0,-703.0,-1103.0
-364,-623,-1130,-306.0,-704.0,-1104.0,-301.0,-705.0,-1111.0,-306.0,-703.0,-1103.0
-364,-618,-1133,-306.0,-704.0,-1104.0,-300.0,-704.0,-1110.0,-306.0,-703.0,-1103.0
-617,-615,-1136,-306.0,-704.0,-1104.0,-300.0,-704.0,-1110.0,-306.0,-703.0,-1103.0
-487,-937,-1246,-306.0,-704.0,-1104.0,-299.0,-703.0,-1109.0,-306.0,-703.0,-1103.0
-481,-932,-1242,-306.0,-704.0,-1104.0,-298.0,-703.0,-1109.0,-306.0,-703.0,-1103.0
-472,-927,-1239,-306.0,-704.0,-1104.0,-297.0,-702.0,-1109.0,-306.0,-703.0,-1103.0
-456,-912,-1235,-306.0,-704.0,-1104.0,-296.0,-702.0,-1108.0,-306.0,-703.0,-1103.0
-445,-895,-1228,-306.0,-704.0,-1104.0,-294.0,-701.0,-1107.0,-306.0,-703.0,-1103.0
-432,-879,-1220,-306.0,-704.0,-1104.0,-293.0,-700.0,-1107.0,-306.0,-703.0,-1103.0
-420,-864,-1213,-306.0,-704.0,-1104.0,-292.0,-699.0,-1106.0,-306.0,-703.0,-1103.0
-408,-843,-1204,-306.0,-704.0,-1104.0,-291.0,-698.0,-1105.0,-306.0,-703.0,-1103.0
-389,-824,-1194,-306.0,-704.0,-1104.0,-289.0,-698.0,-1105.0,-306.0,-703.0,-1103.0
-378,-807,-1184,-306.0,-704.0,-1104.0,-287.0,-697.0,-1104.0,-306.0,-703.0,-1103.0
-366,-786,-1174,-306.0,-704.0,-1104.0,-285.0,-696.0,-1103.0,-306.0,-703.0,-1103.0
-352,-769,-1161,-306.0,-704.0,-1104.0,-283.0,-695.0,-1103.0,-306.0,-703.0,-1103.0
-338,-751,-1150,-306.0,-704.0,-1104.0,-282.0,-694.0,-1102.0,-306.0,-703.0,-1103.0
-328,-735,-1138,-306.0,-704.0,-1104.0,-280.0,-692.0,-1101.0,-306.0,-703.0,-1103.0
-318,-723,-1131,-306.0,-704.0,-1104.0,-278.0,-691.0,-1101.0,-306.0,-703.0,-1103.0
-309,-713,-1124,-306.0,-704.0,-1104.0,-276.0,-691.0,-1101.0,-306.0,-703.0,-1103.0
-304,-704,-1117,-306.0,-704.0,-1104.0,-275.0,-690.0,-1100.0,-306.0,-703.0,-1103.0
-300,-697,-1112,-306.0,-704.0,-1104.0,-273.0,-688.0,-1100.0,-306.0,-703.0,-1103.0
-296,-691,-1108,-306.0,-704.0,-1104.0,-271.0,-687.0,-1099.0,-306.0,-703.0,-1103.0
-293,-688,-1106,-306.0,-704.0,-1104.0,-269.0,-686.0,-1098.0,-306.0,-703.0,-1103.0
-292,-685,-1104,-306.0,-704.0,-1104.0,-267.0,-684.0,-1098.0,-306.0,-703.0,-1103.0
-291,-683,-1103,-306.0,-704.0,-1104.0,-265.0,-683.0,-1097.0,-306.0,-703.0,-1103.0
-290,-682,-1102,-306.0,-704.0,-1104.0,-307.0,-706.0,-1104.0,-306.0,-703.0,-1103.0
-289,-681,-1101,-306.0,-704.0,-1104.0,-307.0,-706.0,-1104.0,-306.0,-703.0,-1103.0
-288,-680,-1100,-306.0,-704.0,-1104.0,-307.0,-706.0,-1104.0,-306.0,-703.0,-1103.0
-288,-679,-1099,-306.0,-704.0,-1104.0,-307.0,-706.0,-1104.0,-306.0,-703.0,-1103.0
-287,-678,-1099,-306.0,-704.0,-1104.0,-307.0,-706.0,-1104.0,-306.0,-703.0,-1103.0
-287,-677,-1098,-306.0,-704.0,-1104.0,-307.0,-706.0,-1104.0,-306.0,-703.0,-1103.0
-287,-676,-1098,-306.0,-704.0,-1104.0,-307.0,-706.0,-1104.0,-306.0,-703.0,-1103.0
-287,-675,-1097,-306.0,-704.0,-1104.0,-307.0,-706.0,-1104.0,-306.0,-703.0,-1103.0
-286,-674,-1097,-306.0,-704.0,-1104.0,-307.0,-706.0,-1104.0,-306.0,-703.0,-1103.0
-286,-674,-1096,-306.0,-704.0,-1104.0,-307.0,-706.0,-1104.0,-306.0,-703.0,-1103.0
-286,-673,-1096,-306.0,-704.0,-1104.0,-307.0,-706.0,-1104.0,-306.0,-703.0,-1103.0
-286,-672,-1095,-306.0,-704.0,-1104.0,-307.0,-706.0,-1104.0,-306.0,-703.0,-1103.0
-286,-671,-1094,-306.0,-704.0,-1104.0,-307.0,-706.0,-1104.0,-306.0,-703.0,-1103.0
-286,-670,-1093,-306.0,-704.0,-1104.0,-307.0,-706.0,-1104.0,-306.0,-703.0,-1103.0
-286,-669,-1092,-306.0,-704.0,-1104.0,-307.0,-706.0,-1104.0,-306.0,-703.0,-1103.0
-286,-668,-1091,-306.0,-704.0,-1104.0,-307.0,-706.0,-1104.0,-306.0,-703.0,-1103.0
-285,-667,-1090,-306.0,-704.0,-1104.0,-307.0,-706.0,-1104.0,-306.0,-703.0,-1103.0
-285,-665,-1089,-306.0,-704.0,-1104.0,-307.0,-706.0,-1104.0,-306.0,-703.0,-1103.0
-285,-664,-1088,-306.0,-704.0,-1104.0,-307.0,-706.0,-1104.0,-306.0,-703.0,-1103.0
-285,-662,-1087,-306.0,-704.0,-1104.0,-307.0,-706.0,-1104.0,-306.0,-703.0,-1103.0
