Index,II
0,1.7602442002442005
1,1.756874236874237
2,1.7523809523809524
3,1.749010989010989
4,1.7602442002442005
5,1.7636141636141636
6,1.7546275946275949
7,1.7624908424908423
8,1.7714774114774114
9,1.7714774114774114
10,1.7613675213675213
11,1.7726007326007327
12,1.779340659340659
13,1.7591208791208792
14,1.75013431013431
15,1.7535042735042734
16,1.7602442002442005
17,1.7658608058608058
18,1.7860805860805862
19,1.795067155067155
20,1.811916971916972
21,1.8107936507936508
22,1.800683760683761
23,1.795067155067155
24,1.7939438339438338
25,1.7894505494505497
26,1.779340659340659
27,1.768107448107448
28,1.7703540903540904
29,1.7636141636141636
30,1.7411477411477412
31,1.7456410256410255
32,1.7546275946275949
33,1.749010989010989
34,1.7546275946275949
35,1.7591208791208792
36,1.7703540903540904
37,1.768107448107448
38,1.7703540903540904
39,1.7658608058608058
40,1.7433943833943837
41,1.7613675213675213
42,1.947838827838828
43,2.361221001221001
44,2.888058608058608
45,3.2722344322344323
46,3.317167277167277
47,2.935238095238095
48,2.4027838827838828
49,1.975921855921856
50,1.7872039072039072
51,1.737777777777778
52,1.7096947496947497
53,1.6827350427350427
54,1.6422954822954825
55,1.6299389499389498
56,1.6220757020757022
57,1.6175824175824176
58,1.5917460317460317
59,1.5917460317460317
60,1.6018559218559218
61,1.6052258852258852
62,1.6018559218559218
63,1.5984859584859583
64,1.6063492063492064
65,1.604102564102564
66,1.61982905982906
67,1.611965811965812
68,1.6187057387057386
69,1.6108424908424908
70,1.6085958485958487
71,1.6175824175824176
72,1.6231990231990232
73,1.61982905982906
74,1.6164590964590964
75,1.6299389499389498
76,1.631062271062271
77,1.6299389499389498
78,1.6220757020757022
79,1.6344322344322344
80,1.6355555555555557
81,1.64004884004884
82,1.6333089133089134
83,1.6265689865689863
84,1.6467887667887668
85,1.6445421245421246
86,1.6299389499389498
87,1.6333089133089134
88,1.6344322344322344
89,1.6344322344322344
90,1.64004884004884
91,1.6625152625152626
92,1.6681318681318682
93,1.6748717948717948
94,1.6737484737484738
95,1.6816117216117217
96,1.7063247863247863
97,1.7287912087912087
98,1.7478876678876678
99,1.777094017094017
100,1.8164102564102564
101,1.81978021978022
102,1.8377533577533576
103,1.857973137973138
104,1.87931623931624
105,1.8849328449328449
106,1.883809523809524
107,1.886056166056166
108,1.868083028083028
109,1.832136752136752
110,1.8018070818070813
111,1.7726007326007327
112,1.749010989010989
113,1.7096947496947497
114,1.684981684981685
115,1.6793650793650794
116,1.6827350427350427
117,1.6546520146520147
118,1.6445421245421246
119,1.6467887667887668
120,1.6512820512820512
121,1.6535286935286937
122,1.6501587301587302
123,1.6422954822954825
124,1.6445421245421246
125,1.6411721611721612
126,1.64004884004884
127,1.656898656898657
128,1.6602686202686203
129,1.6625152625152626
130,1.6546520146520147
131,1.6501587301587302
132,1.6557753357753358
133,1.6512820512820512
134,1.659145299145299
135,1.6647619047619049
136,1.6681318681318682
137,1.6625152625152626
138,1.6681318681318682
139,1.677118437118437
140,1.686105006105006
141,1.6703785103785105
142,1.667008547008547
143,1.6715018315018315
144,1.677118437118437
145,1.677118437118437
146,1.686105006105006
147,1.6973382173382174
148,1.684981684981685
149,1.6816117216117217
150,1.6816117216117217
151,1.705201465201465
152,1.7007081807081808
153,1.704078144078144
154,1.7063247863247863
155,1.7265445665445665
156,1.713064713064713
157,1.7018315018315018
158,1.6973382173382174
159,1.7018315018315018
160,1.710818070818071
161,1.7085714285714286
162,1.713064713064713
163,1.7332844932844933
164,1.7344078144078143
165,1.7209279609279609
166,1.705201465201465
167,1.710818070818071
168,1.7209279609279609
169,1.7254212454212454
170,1.7332844932844933
171,1.7366544566544566
172,1.7276678876678877
173,1.7175579975579975
174,1.7085714285714286
175,1.7276678876678877
176,1.7411477411477412
177,1.7175579975579975
178,1.7175579975579975
179,1.7153113553113553
180,1.7287912087912087
181,1.7265445665445665
182,1.7141880341880342
183,1.7254212454212454
184,1.7186813186813186
185,1.7276678876678877
186,1.7276678876678877
187,1.7231746031746031
188,1.7276678876678877
189,1.7254212454212454
190,1.7254212454212454
191,1.738901098901099
192,1.7422710622710622
193,1.731037851037851
194,1.722051282051282
195,1.737777777777778
196,1.749010989010989
197,1.7321611721611725
198,1.722051282051282
199,1.731037851037851
200,1.7366544566544566
201,1.7478876678876678
202,1.74002442002442
203,1.7456410256410255
204,1.7535042735042734
205,1.7321611721611725
206,1.7276678876678877
207,1.737777777777778
208,1.7456410256410255
209,1.7366544566544566
210,1.7265445665445665
211,1.7512576312576311
212,1.7591208791208792
213,1.75013431013431
214,1.7467643467643468
215,1.7535042735042734
216,1.7613675213675213
217,1.7433943833943837
218,1.737777777777778
219,1.75013431013431
220,1.7647374847374848
221,1.7613675213675213
222,1.7478876678876678
223,1.7445177045177045
224,1.7512576312576311
225,1.7557509157509157
226,1.7344078144078143
227,1.75013431013431
228,1.7624908424908423
229,1.75013431013431
230,1.749010989010989
231,1.749010989010989
232,1.7456410256410255
233,1.749010989010989
234,1.7512576312576311
235,1.7512576312576311
236,1.7467643467643468
237,1.7478876678876678
238,1.749010989010989
239,1.756874236874237
240,1.7535042735042734
241,1.749010989010989
242,1.75013431013431
243,1.7613675213675213
244,1.7546275946275949
245,1.7557509157509157
246,1.749010989010989
247,1.75013431013431
248,1.7535042735042734
249,1.749010989010989
250,1.7546275946275949
251,1.7658608058608058
252,1.777094017094017
253,1.777094017094017
254,1.795067155067155
255,1.804053724053724
256,1.7984371184371184
257,1.775970695970696
258,1.7804639804639804
259,1.784957264957265
260,1.7782173382173383
261,1.75013431013431
262,1.74002442002442
263,1.749010989010989
264,1.749010989010989
265,1.7433943833943837
266,1.7478876678876678
267,1.75013431013431
268,1.7433943833943837
269,1.731037851037851
270,1.731037851037851
271,1.7478876678876678
272,1.7456410256410255
273,1.7287912087912087
274,1.686105006105006
275,1.6827350427350427
276,1.8152869352869352
277,2.159023199023199
278,2.7218070818070816
279,3.1464224664224663
280,3.231794871794872
281,2.8644688644688645
282,2.4016605616605617
283,2.020854700854701
284,1.8152869352869352
285,1.7366544566544566
286,1.710818070818071
287,1.704078144078144
288,1.6894749694749696
289,1.659145299145299
290,1.64004884004884
291,1.6378021978021975
292,1.6467887667887668
293,1.6288156288156288
294,1.6220757020757022
295,1.631062271062271
296,1.6344322344322344
297,1.6288156288156288
298,1.6231990231990232
299,1.6501587301587302
300,1.6378021978021975
301,1.6299389499389498
302,1.6456654456654456
303,1.656898656898657
304,1.659145299145299
305,1.6467887667887668
306,1.647912087912088
307,1.6625152625152626
308,1.6737484737484738
309,1.6602686202686203
310,1.6602686202686203
311,1.6726251526251523
312,1.678241758241758
313,1.6613919413919414
314,1.659145299145299
315,1.6681318681318682
316,1.6827350427350427
317,1.6715018315018315
318,1.6613919413919414
319,1.6737484737484738
320,1.693968253968254
321,1.6984615384615385
322,1.6917216117216116
323,1.7018315018315018
324,1.7018315018315018
325,1.7074481074481074
326,1.704078144078144
327,1.72991452991453
328,1.7456410256410255
329,1.7546275946275949
330,1.757997557997558
331,1.7827106227106226
332,1.8074236874236875
333,1.8265201465201464
334,1.843369963369964
335,1.8804395604395605
336,1.9186324786324789
337,1.935482295482296
338,1.93997557997558
339,1.964688644688645
340,1.957948717948718
341,1.9287423687423688
342,1.9163858363858364
343,1.8804395604395605
344,1.8377533577533576
345,1.7939438339438338
346,1.7669841269841269
347,1.7546275946275949
348,1.7321611721611725
349,1.6928449328449329
350,1.6804884004884004
351,1.678241758241758
352,1.677118437118437
353,1.6557753357753358
354,1.6546520146520147
355,1.6726251526251523
356,1.665885225885226
357,1.6490354090354091
358,1.6613919413919414
359,1.6703785103785105
360,1.6636385836385836
361,1.659145299145299
362,1.678241758241758
363,1.675995115995116
364,1.6905982905982906
365,1.677118437118437
366,1.6748717948717948
367,1.6894749694749696
368,1.6917216117216116
369,1.6726251526251523
370,1.6737484737484738
371,1.6894749694749696
372,1.6973382173382174
373,1.6917216117216116
374,1.686105006105006
375,1.7007081807081808
376,1.7085714285714286
377,1.7096947496947497
378,1.713064713064713
379,1.7085714285714286
380,1.7198046398046398
381,1.7007081807081808
382,1.7085714285714286
383,1.711941391941392
384,1.7209279609279609
385,1.7074481074481074
386,1.722051282051282
387,1.7209279609279609
388,1.7276678876678877
389,1.7366544566544566
390,1.74002442002442
391,1.738901098901099
392,1.7265445665445665
393,1.7276678876678877
394,1.7254212454212454
395,1.7411477411477412
396,1.7355311355311356
397,1.7231746031746031
398,1.7276678876678877
399,1.7411477411477412
400,1.74002442002442
401,1.7422710622710622
402,1.737777777777778
403,1.7591208791208792
404,1.7456410256410255
405,1.7332844932844933
406,1.7422710622710622
407,1.7433943833943837
408,1.7355311355311356
409,1.738901098901099
410,1.7512576312576311
411,1.7636141636141636
412,1.7523809523809524
413,1.749010989010989
414,1.7591208791208792
415,1.7557509157509157
416,1.749010989010989
417,1.75013431013431
418,1.7613675213675213
419,1.7647374847374848
420,1.7535042735042734
421,1.75013431013431
422,1.7591208791208792
423,1.7703540903540904
424,1.7535042735042734
425,1.7602442002442005
426,1.7546275946275949
427,1.7669841269841269
428,1.7703540903540904
429,1.757997557997558
430,1.7546275946275949
431,1.7647374847374848
432,1.7658608058608058
433,1.7726007326007327
434,1.7613675213675213
435,1.7636141636141636
436,1.7636141636141636
437,1.7636141636141636
438,1.7748473748473748
439,1.7815873015873016
440,1.7726007326007327
441,1.7714774114774114
442,1.7748473748473748
443,1.7804639804639804
444,1.768107448107448
445,1.7613675213675213
446,1.7658608058608058
447,1.7804639804639804
448,1.7737240537240535
449,1.7714774114774114
450,1.7815873015873016
451,1.7714774114774114
452,1.7782173382173383
453,1.7658608058608058
454,1.7737240537240535
455,1.7726007326007327
456,1.7647374847374848
457,1.7647374847374848
458,1.7703540903540904
459,1.7894505494505497
460,1.7804639804639804
461,1.756874236874237
462,1.7748473748473748
463,1.783833943833944
464,1.7669841269841269
465,1.7624908424908423
466,1.768107448107448
467,1.777094017094017
468,1.7726007326007327
469,1.7714774114774114
470,1.783833943833944
471,1.7860805860805862
472,1.7703540903540904
473,1.7658608058608058
474,1.7692307692307692
475,1.777094017094017
476,1.7669841269841269
477,1.7658608058608058
478,1.7737240537240535
479,1.7883272283272282
480,1.7973137973137974
481,1.7973137973137974
482,1.82989010989011
483,1.8388766788766788
484,1.825396825396825
485,1.8051770451770448
486,1.802930402930403
487,1.81978021978022
488,1.7872039072039072
489,1.7782173382173383
490,1.7714774114774114
491,1.768107448107448
492,1.7613675213675213
493,1.7624908424908423
494,1.7726007326007327
495,1.7815873015873016
496,1.7613675213675213
497,1.757997557997558
498,1.7669841269841269
499,1.7883272283272282
500,1.779340659340659
501,1.7535042735042734
502,1.7669841269841269
503,1.957948717948718
504,2.357851037851038
505,2.8824420024420023
506,3.2980708180708183
507,3.3834432234432232
508,3.025103785103785
509,2.4589499389499387
510,2.0006349206349205
511,1.8085470085470088
512,1.738901098901099
513,1.7018315018315018
514,1.6726251526251523
515,1.659145299145299
516,1.632185592185592
517,1.615335775335775
518,1.6142124542124543
519,1.6142124542124543
520,1.6052258852258852
521,1.6085958485958487
522,1.615335775335775
523,1.6187057387057386
524,1.6108424908424908
525,1.611965811965812
526,1.613089133089133
527,1.6220757020757022
528,1.6175824175824176
529,1.6052258852258852
530,1.61982905982906
531,1.6254456654456657
532,1.6276923076923078
533,1.6288156288156288
534,1.636678876678877
535,1.636678876678877
536,1.6333089133089134
537,1.6231990231990232
538,1.638925518925519
539,1.6445421245421246
540,1.64004884004884
541,1.6333089133089134
542,1.6490354090354091
543,1.64004884004884
544,1.632185592185592
545,1.636678876678877
546,1.647912087912088
547,1.6546520146520147
548,1.6422954822954825
549,1.6535286935286937
550,1.6613919413919414
551,1.678241758241758
552,1.6636385836385836
553,1.6748717948717948
554,1.6917216117216116
555,1.6917216117216116
556,1.6950915750915752
557,1.7164346764346765
558,1.7433943833943837
559,1.7726007326007327
560,1.777094017094017
561,1.8085470085470088
562,1.842246642246642
563,1.8804395604395605
564,1.8927960927960927
565,1.9085225885225885
566,1.9332356532356527
567,1.920879120879121
568,1.904029304029304
569,1.874822954822955
570,1.8534798534798536
571,1.8265201465201464
572,1.7916971916971918
573,1.75013431013431
574,1.7411477411477412
575,1.7231746031746031
576,1.6995848595848595
577,1.686105006105006
578,1.6793650793650794
579,1.6748717948717948
580,1.6557753357753358
581,1.6546520146520147
582,1.6512820512820512
583,1.6613919413919414
584,1.6467887667887668
585,1.6467887667887668
586,1.6602686202686203
587,1.6636385836385836
588,1.6625152625152626
589,1.6546520146520147
590,1.665885225885226
591,1.6737484737484738
592,1.6647619047619049
593,1.6647619047619049
594,1.6726251526251523
595,1.6883516483516483
596,1.6737484737484738
597,1.6647619047619049
598,1.6827350427350427
599,1.686105006105006
600,1.686105006105006
601,1.6827350427350427
602,1.6905982905982906
603,1.6962148962148962
604,1.675995115995116
605,1.677118437118437
606,1.6883516483516483
607,1.6928449328449329
608,1.6894749694749696
609,1.6905982905982906
610,1.7063247863247863
611,1.704078144078144
612,1.7074481074481074
613,1.704078144078144
614,1.7074481074481074
615,1.713064713064713
616,1.705201465201465
617,1.7096947496947497
618,1.7209279609279609
619,1.7231746031746031
620,1.704078144078144
621,1.7141880341880342
622,1.7231746031746031
623,1.7242979242979244
624,1.710818070818071
625,1.704078144078144
626,1.7276678876678877
627,1.722051282051282
628,1.7175579975579975
629,1.7153113553113553
630,1.7198046398046398
631,1.7198046398046398
632,1.7242979242979244
633,1.7276678876678877
634,1.7422710622710622
635,1.7332844932844933
636,1.7254212454212454
637,1.7242979242979244
638,1.7445177045177045
639,1.7433943833943837
640,1.74002442002442
641,1.7355311355311356
642,1.7433943833943837
643,1.738901098901099
644,1.7265445665445665
645,1.7242979242979244
646,1.7332844932844933
647,1.7344078144078143
648,1.738901098901099
649,1.72991452991453
650,1.7366544566544566
651,1.7456410256410255
652,1.7332844932844933
653,1.7467643467643468
654,1.7546275946275949
655,1.749010989010989
656,1.7433943833943837
657,1.749010989010989
658,1.7467643467643468
659,1.75013431013431
660,1.7366544566544566
661,1.7411477411477412
662,1.7478876678876678
663,1.7546275946275949
664,1.7355311355311356
665,1.7478876678876678
666,1.7557509157509157
667,1.7546275946275949
668,1.749010989010989
669,1.7422710622710622
670,1.7636141636141636
671,1.7557509157509157
672,1.7546275946275949
673,1.7546275946275949
674,1.7523809523809524
675,1.7636141636141636
676,1.7546275946275949
677,1.7445177045177045
678,1.7523809523809524
679,1.7512576312576311
680,1.7512576312576311
681,1.7523809523809524
682,1.7613675213675213
683,1.7669841269841269
684,1.7557509157509157
685,1.7557509157509157
686,1.7737240537240535
687,1.7557509157509157
688,1.75013431013431
689,1.75013431013431
690,1.757997557997558
691,1.757997557997558
692,1.7535042735042734
693,1.757997557997558
694,1.7726007326007327
695,1.7692307692307692
696,1.7591208791208792
697,1.7591208791208792
698,1.7636141636141636
699,1.756874236874237
700,1.7602442002442005
701,1.7624908424908423
702,1.7737240537240535
703,1.7714774114774114
704,1.757997557997558
705,1.7636141636141636
706,1.779340659340659
707,1.7726007326007327
708,1.7658608058608058
709,1.7624908424908423
710,1.7703540903540904
711,1.7636141636141636
712,1.7613675213675213
713,1.775970695970696
714,1.795067155067155
715,1.8152869352869352
716,1.8018070818070813
717,1.7984371184371184
718,1.7984371184371184
719,1.7905738705738703
720,1.7815873015873016
721,1.7782173382173383
722,1.7748473748473748
723,1.7669841269841269
724,1.7456410256410255
725,1.75013431013431
726,1.7737240537240535
727,1.7714774114774114
728,1.7624908424908423
729,1.7512576312576311
730,1.7647374847374848
731,1.756874236874237
732,1.7546275946275949
733,1.7714774114774114
734,1.7523809523809524
735,1.7433943833943837
736,1.842246642246642
737,2.1646398046398048
738,2.679120879120879
739,3.150915750915751
740,3.344126984126984
741,3.1127228327228327
742,2.622954822954823
743,2.1197069597069595
744,1.841123321123321
745,1.7535042735042734
746,1.731037851037851
747,1.6995848595848595
748,1.6602686202686203
749,1.6445421245421246
750,1.6344322344322344
751,1.620952380952381
752,1.6187057387057386
753,1.6164590964590964
754,1.6175824175824176
755,1.6063492063492064
756,1.6007326007326008
757,1.6018559218559218
758,1.6231990231990232
759,1.6052258852258852
760,1.6007326007326008
761,1.620952380952381
762,1.6288156288156288
763,1.6265689865689863
764,1.6097191697191695
765,1.6254456654456657
766,1.6276923076923078
767,1.6220757020757022
768,1.6231990231990232
769,1.6378021978021975
770,1.638925518925519
771,1.6276923076923078
772,1.6288156288156288
773,1.6378021978021975
774,1.647912087912088
775,1.6456654456654456
776,1.6501587301587302
777,1.6535286935286937
778,1.6602686202686203
779,1.6445421245421246
780,1.6434188034188033
781,1.6546520146520147
782,1.6715018315018315
783,1.6625152625152626
784,1.659145299145299
785,1.6647619047619049
786,1.6793650793650794
787,1.6883516483516483
788,1.6872283272283273
789,1.704078144078144
790,1.7164346764346765
791,1.7242979242979244
792,1.7422710622710622
793,1.7726007326007327
794,1.813040293040293
795,1.8355067155067155
796,1.8534798534798536
797,1.87931623931624
798,1.9062759462759464
799,1.914139194139194
800,1.9287423687423688
801,1.9096459096459093
802,1.9062759462759464
803,1.8725763125763129
804,1.827643467643468
805,1.804053724053724
806,1.7703540903540904
807,1.72991452991453
808,1.704078144078144
809,1.6928449328449329
810,1.6917216117216116
811,1.677118437118437
812,1.656898656898657
813,1.6613919413919414
814,1.6681318681318682
815,1.6681318681318682
816,1.6602686202686203
817,1.6647619047619049
818,1.6602686202686203
819,1.6681318681318682
820,1.6535286935286937
821,1.6681318681318682
822,1.6827350427350427
823,1.6737484737484738
824,1.665885225885226
825,1.6715018315018315
826,1.6816117216117217
827,1.6748717948717948
828,1.675995115995116
829,1.6804884004884004
830,1.6905982905982906
831,1.6827350427350427
832,1.6681318681318682
833,1.6804884004884004
834,1.6928449328449329
835,1.6917216117216116
836,1.6737484737484738
837,1.6872283272283273
838,1.6894749694749696
839,1.6872283272283273
840,1.6894749694749696
841,1.6894749694749696
842,1.7085714285714286
843,1.7096947496947497
844,1.6950915750915752
845,1.711941391941392
846,1.7063247863247863
847,1.7141880341880342
848,1.6950915750915752
849,1.713064713064713
850,1.713064713064713
851,1.713064713064713
852,1.705201465201465
853,1.7153113553113553
854,1.7164346764346765
855,1.7198046398046398
856,1.7153113553113553
857,1.7265445665445665
858,1.731037851037851
859,1.7231746031746031
860,1.7209279609279609
861,1.7198046398046398
862,1.7242979242979244
863,1.72991452991453
864,1.72991452991453
865,1.7433943833943837
866,1.7456410256410255
867,1.731037851037851
868,1.7254212454212454
869,1.731037851037851
870,1.7254212454212454
871,1.7209279609279609
872,1.7209279609279609
873,1.722051282051282
874,1.7242979242979244
875,1.7231746031746031
876,1.7276678876678877
877,1.7344078144078143
878,1.737777777777778
879,1.7153113553113553
880,1.713064713064713
881,1.7332844932844933
882,1.7355311355311356
883,1.7265445665445665
884,1.7276678876678877
885,1.7422710622710622
886,1.7411477411477412
887,1.737777777777778
888,1.7287912087912087
889,1.7242979242979244
890,1.7186813186813186
891,1.722051282051282
892,1.7074481074481074
893,1.7366544566544566
894,1.738901098901099
895,1.7321611721611725
896,1.737777777777778
897,1.7411477411477412
898,1.749010989010989
899,1.7411477411477412
900,1.74002442002442
901,1.7411477411477412
902,1.749010989010989
903,1.738901098901099
904,1.738901098901099
905,1.7467643467643468
906,1.7366544566544566
907,1.7276678876678877
908,1.7265445665445665
909,1.7366544566544566
910,1.7512576312576311
911,1.7478876678876678
912,1.7422710622710622
913,1.756874236874237
914,1.7478876678876678
915,1.7355311355311356
916,1.738901098901099
917,1.7478876678876678
918,1.7512576312576311
919,1.749010989010989
920,1.7546275946275949
921,1.757997557997558
922,1.7456410256410255
923,1.749010989010989
924,1.7344078144078143
925,1.757997557997558
926,1.757997557997558
927,1.7467643467643468
928,1.749010989010989
929,1.7602442002442005
930,1.7703540903540904
931,1.7512576312576311
932,1.7591208791208792
933,1.7703540903540904
934,1.7613675213675213
935,1.7478876678876678
936,1.749010989010989
937,1.7557509157509157
938,1.74002442002442
939,1.7321611721611725
940,1.7265445665445665
941,1.738901098901099
942,1.7422710622710622
943,1.7411477411477412
944,1.7546275946275949
945,1.7591208791208792
946,1.7658608058608058
947,1.775970695970696
948,1.8018070818070813
949,1.804053724053724
950,1.7984371184371184
951,1.7782173382173383
952,1.7737240537240535
953,1.7894505494505497
954,1.7872039072039072
955,1.7557509157509157
956,1.737777777777778
957,1.7433943833943837
958,1.737777777777778
959,1.7332844932844933
960,1.7366544566544566
961,1.7467643467643468
962,1.7546275946275949
963,1.7535042735042734
964,1.7467643467643468
965,1.7366544566544566
966,1.7445177045177045
967,1.737777777777778
968,1.7096947496947497
969,1.6995848595848595
970,1.775970695970696
971,2.084884004884005
972,2.6308180708180706
973,3.116092796092796
974,3.2756043956043954
975,2.98017094017094
976,2.5106227106227106
977,2.0657875457875456
978,1.822026862026862
979,1.7276678876678877
980,1.6995848595848595
981,1.6827350427350427
982,1.659145299145299
983,1.6355555555555557
984,1.6355555555555557
985,1.6422954822954825
986,1.638925518925519
987,1.61982905982906
988,1.613089133089133
989,1.6108424908424908
990,1.5962393162393165
991,1.5894993894993894
992,1.5962393162393165
993,1.6097191697191695
994,1.604102564102564
995,1.6108424908424908
996,1.6276923076923078
997,1.632185592185592
998,1.6467887667887668
999,1.636678876678877
1000,1.6344322344322344
1001,1.632185592185592
1002,1.632185592185592
1003,1.6254456654456657
1004,1.632185592185592
1005,1.6378021978021975
1006,1.6344322344322344
1007,1.632185592185592
1008,1.6422954822954825
1009,1.6625152625152626
1010,1.659145299145299
1011,1.6535286935286937
1012,1.667008547008547
1013,1.6703785103785105
1014,1.656898656898657
1015,1.6647619047619049
1016,1.6737484737484738
1017,1.6950915750915752
1018,1.6962148962148962
1019,1.6928449328449329
1020,1.7085714285714286
1021,1.7198046398046398
1022,1.722051282051282
1023,1.7254212454212454
1024,1.7456410256410255
1025,1.7726007326007327
1026,1.7782173382173383
1027,1.8051770451770448
1028,1.8366300366300363
1029,1.8826862026862028
1030,1.913015873015873
1031,1.922002442002442
1032,1.932112332112332
1033,1.9534554334554333
1034,1.9366056166056167
1035,1.9062759462759464
1036,1.8826862026862028
1037,1.8658363858363856
1038,1.8388766788766788
1039,1.779340659340659
1040,1.7557509157509157
1041,1.7411477411477412
1042,1.693968253968254
1043,1.6726251526251523
1044,1.6703785103785105
1045,1.6512820512820512
1046,1.6445421245421246
1047,1.6445421245421246
1048,1.6490354090354091
1049,1.656898656898657
1050,1.6512820512820512
1051,1.631062271062271
1052,1.6265689865689863
1053,1.632185592185592
1054,1.6411721611721612
1055,1.6333089133089134
1056,1.647912087912088
1057,1.6557753357753358
1058,1.6501587301587302
1059,1.6422954822954825
1060,1.665885225885226
1061,1.6546520146520147
1062,1.6512820512820512
1063,1.6546520146520147
1064,1.6636385836385836
1065,1.6535286935286937
1066,1.658021978021978
1067,1.6602686202686203
1068,1.684981684981685
1069,1.684981684981685
1070,1.6737484737484738
1071,1.675995115995116
1072,1.6692551892551892
1073,1.6816117216117217
1074,1.686105006105006
1075,1.6950915750915752
1076,1.6973382173382174
1077,1.6984615384615385
1078,1.6950915750915752
1079,1.6917216117216116
1080,1.6962148962148962
1081,1.705201465201465
1082,1.7018315018315018
1083,1.7007081807081808
1084,1.6962148962148962
1085,1.7018315018315018
1086,1.7018315018315018
1087,1.710818070818071
1088,1.705201465201465
1089,1.710818070818071
1090,1.7231746031746031
1091,1.7231746031746031
1092,1.7366544566544566
1093,1.74002442002442
1094,1.7287912087912087
1095,1.7209279609279609
1096,1.713064713064713
1097,1.7186813186813186
1098,1.7242979242979244
1099,1.710818070818071
1100,1.7153113553113553
1101,1.7186813186813186
1102,1.7164346764346765
1103,1.7164346764346765
1104,1.7332844932844933
1105,1.72991452991453
1106,1.731037851037851
1107,1.72991452991453
1108,1.7242979242979244
1109,1.7366544566544566
1110,1.7445177045177045
1111,1.7276678876678877
1112,1.7355311355311356
1113,1.749010989010989
1114,1.7411477411477412
1115,1.72991452991453
1116,1.7332844932844933
1117,1.737777777777778
1118,1.737777777777778
1119,1.7355311355311356
1120,1.74002442002442
1121,1.7456410256410255
1122,1.738901098901099
1123,1.7366544566544566
1124,1.7478876678876678
1125,1.7557509157509157
1126,1.7433943833943837
1127,1.7332844932844933
1128,1.7478876678876678
1129,1.7467643467643468
1130,1.749010989010989
1131,1.7366544566544566
1132,1.7467643467643468
1133,1.7411477411477412
1134,1.7535042735042734
1135,1.7467643467643468
1136,1.7692307692307692
1137,1.7624908424908423
1138,1.749010989010989
1139,1.7422710622710622
1140,1.757997557997558
1141,1.7557509157509157
1142,1.7523809523809524
1143,1.7478876678876678
1144,1.7433943833943837
1145,1.7512576312576311
1146,1.7467643467643468
1147,1.7456410256410255
1148,1.7669841269841269
1149,1.7669841269841269
1150,1.7523809523809524
1151,1.749010989010989
1152,1.7692307692307692
1153,1.7591208791208792
1154,1.757997557997558
1155,1.7636141636141636
1156,1.7692307692307692
1157,1.756874236874237
1158,1.7535042735042734
1159,1.7546275946275949
1160,1.779340659340659
1161,1.7872039072039072
1162,1.7703540903540904
1163,1.7815873015873016
1164,1.8074236874236875
1165,1.8265201465201464
1166,1.811916971916972
1167,1.7894505494505497
1168,1.796190476190476
1169,1.804053724053724
1170,1.7995604395604397
1171,1.7703540903540904
1172,1.75013431013431
1173,1.757997557997558
1174,1.7703540903540904
1175,1.7636141636141636
1176,1.7658608058608058
1177,1.7636141636141636
1178,1.7535042735042734
1179,1.7535042735042734
1180,1.7703540903540904
1181,1.7692307692307692
1182,1.7782173382173383
1183,1.7703540903540904
1184,1.7198046398046398
1185,1.7141880341880342
1186,1.847863247863248
1187,2.202832722832723
1188,2.768986568986569
1189,3.212698412698413
1190,3.3295238095238093
1191,2.9734310134310133
1192,2.464566544566545
1193,2.041074481074481
1194,1.8152869352869352
1195,1.7445177045177045
1196,1.7344078144078143
1197,1.722051282051282
1198,1.684981684981685
1199,1.6524053724053724
1200,1.6647619047619049
1201,1.6557753357753358
1202,1.6501587301587302
1203,1.631062271062271
1204,1.6276923076923078
1205,1.6265689865689863
1206,1.6276923076923078
1207,1.631062271062271
1208,1.6254456654456657
1209,1.6467887667887668
1210,1.6265689865689863
1211,1.6265689865689863
1212,1.6467887667887668
1213,1.6602686202686203
1214,1.6546520146520147
1215,1.656898656898657
1216,1.6535286935286937
1217,1.6681318681318682
1218,1.6625152625152626
1219,1.6524053724053724
1220,1.6625152625152626
1221,1.6703785103785105
1222,1.6726251526251523
1223,1.665885225885226
1224,1.665885225885226
1225,1.6748717948717948
1226,1.675995115995116
1227,1.677118437118437
1228,1.6827350427350427
1229,1.6737484737484738
1230,1.6793650793650794
1231,1.684981684981685
1232,1.704078144078144
1233,1.7085714285714286
1234,1.7096947496947497
1235,1.711941391941392
1236,1.7175579975579975
1237,1.7411477411477412
1238,1.738901098901099
1239,1.7433943833943837
1240,1.7692307692307692
1241,1.8063003663003665
1242,1.822026862026862
1243,1.831013431013431
1244,1.871452991452992
1245,1.9163858363858364
1246,1.9253724053724053
1247,1.9467155067155064
1248,1.9736752136752136
1249,1.9826617826617827
1250,1.959072039072039
1251,1.9242490842490845
1252,1.8984126984126983
1253,1.866959706959707
1254,1.822026862026862
1255,1.7883272283272282
1256,1.757997557997558
1257,1.731037851037851
1258,1.704078144078144
1259,1.6827350427350427
1260,1.6793650793650794
1261,1.6793650793650794
1262,1.6647619047619049
1263,1.6636385836385836
1264,1.675995115995116
1265,1.677118437118437
1266,1.6681318681318682
1267,1.6512820512820512
1268,1.6613919413919414
1269,1.6726251526251523
1270,1.665885225885226
1271,1.6703785103785105
1272,1.6793650793650794
1273,1.675995115995116
1274,1.6647619047619049
1275,1.659145299145299
1276,1.6748717948717948
1277,1.6917216117216116
1278,1.6917216117216116
1279,1.6726251526251523
1280,1.686105006105006
1281,1.6984615384615385
1282,1.7018315018315018
1283,1.6973382173382174
1284,1.7141880341880342
1285,1.7276678876678877
1286,1.7411477411477412
1287,1.7535042735042734
1288,1.7737240537240535
1289,1.7591208791208792
1290,1.7546275946275949
1291,1.7276678876678877
1292,1.6995848595848595
1293,1.6905982905982906
1294,1.702954822954823
1295,1.7074481074481074
1296,1.7265445665445665
1297,1.711941391941392
1298,1.705201465201465
1299,1.6894749694749696
1300,1.711941391941392
1301,1.7007081807081808
1302,1.693968253968254
1303,1.693968253968254
1304,1.7063247863247863
1305,1.7085714285714286
1306,1.7007081807081808
1307,1.7096947496947497
1308,1.7254212454212454
1309,1.6962148962148962
1310,1.7276678876678877
1311,1.9467155067155064
1312,2.424126984126984
1313,2.941978021978022
1314,3.278974358974359
1315,3.2205616605616605
1316,2.792576312576313
1317,2.242148962148962
1318,1.875946275946276
1319,1.7445177045177045
1320,1.6816117216117217
1321,1.6703785103785105
1322,1.631062271062271
1323,1.6254456654456657
1324,1.6187057387057386
1325,1.6018559218559218
1326,1.592869352869353
1327,1.5906227106227109
1328,1.6029792429792429
1329,1.604102564102564
1330,1.5894993894993894
1331,1.5805128205128205
1332,1.5962393162393165
1333,1.6029792429792429
1334,1.6018559218559218
1335,1.5962393162393165
1336,1.6007326007326008
1337,1.6142124542124543
1338,1.6063492063492064
1339,1.613089133089133
1340,1.61982905982906
1341,1.620952380952381
1342,1.61982905982906
1343,1.61982905982906
1344,1.6434188034188033
1345,1.638925518925519
1346,1.6276923076923078
1347,1.6276923076923078
1348,1.6411721611721612
1349,1.6490354090354091
1350,1.6535286935286937
1351,1.6602686202686203
1352,1.6681318681318682
1353,1.6647619047619049
1354,1.675995115995116
1355,1.678241758241758
1356,1.6995848595848595
1357,1.6905982905982906
1358,1.6905982905982906
1359,1.713064713064713
1360,1.7355311355311356
1361,1.749010989010989
1362,1.7445177045177045
1363,1.777094017094017
1364,1.7939438339438338
1365,1.8242735042735043
1366,1.855726495726496
1367,1.871452991452992
1368,1.9085225885225885
1369,1.9197557997558
1370,1.9231257631257632
1371,1.9242490842490845
1372,1.914139194139194
1373,1.8871794871794871
1374,1.8377533577533576
1375,1.8018070818070813
1376,1.7703540903540904
1377,1.731037851037851
1378,1.713064713064713
1379,1.6872283272283273
1380,1.6703785103785105
1381,1.6546520146520147
1382,1.64004884004884
1383,1.6411721611721612
1384,1.6434188034188033
1385,1.6501587301587302
1386,1.6344322344322344
1387,1.6288156288156288
1388,1.6378021978021975
1389,1.638925518925519
1390,1.64004884004884
1391,1.6490354090354091
1392,1.6602686202686203
1393,1.658021978021978
1394,1.6434188034188033
1395,1.6647619047619049
1396,1.6692551892551892
1397,1.6535286935286937
1398,1.6456654456654456
1399,1.658021978021978
1400,1.6793650793650794
1401,1.677118437118437
1402,1.6557753357753358
1403,1.6625152625152626
1404,1.6827350427350427
1405,1.6804884004884004
1406,1.6748717948717948
1407,1.6804884004884004
1408,1.6804884004884004
1409,1.684981684981685
1410,1.6726251526251523
1411,1.6883516483516483
1412,1.6917216117216116
1413,1.693968253968254
1414,1.683858363858364
1415,1.6883516483516483
1416,1.7063247863247863
1417,1.7074481074481074
1418,1.7063247863247863
1419,1.713064713064713
1420,1.710818070818071
1421,1.7096947496947497
1422,1.705201465201465
1423,1.7186813186813186
1424,1.722051282051282
1425,1.7141880341880342
1426,1.713064713064713
1427,1.7141880341880342
1428,1.737777777777778
1429,1.7164346764346765
1430,1.710818070818071
1431,1.7287912087912087
1432,1.7355311355311356
1433,1.738901098901099
1434,1.722051282051282
1435,1.731037851037851
1436,1.7411477411477412
1437,1.74002442002442
1438,1.7254212454212454
1439,1.722051282051282
1440,1.731037851037851
1441,1.7344078144078143
1442,1.7276678876678877
1443,1.731037851037851
1444,1.7422710622710622
1445,1.7456410256410255
1446,1.737777777777778
1447,1.7467643467643468
1448,1.7535042735042734
1449,1.7433943833943837
1450,1.7478876678876678
1451,1.7456410256410255
1452,1.7602442002442005
1453,1.7591208791208792
1454,1.74002442002442
1455,1.7456410256410255
1456,1.7535042735042734
1457,1.7512576312576311
1458,1.7456410256410255
1459,1.7456410256410255
1460,1.757997557997558
1461,1.7512576312576311
1462,1.757997557997558
1463,1.7478876678876678
1464,1.7669841269841269
1465,1.7636141636141636
1466,1.7591208791208792
1467,1.7669841269841269
1468,1.7692307692307692
1469,1.7703540903540904
1470,1.757997557997558
1471,1.7624908424908423
1472,1.7714774114774114
1473,1.7613675213675213
1474,1.749010989010989
1475,1.7512576312576311
1476,1.7591208791208792
1477,1.749010989010989
1478,1.7613675213675213
1479,1.7512576312576311
1480,1.7737240537240535
1481,1.7726007326007327
1482,1.757997557997558
1483,1.7535042735042734
1484,1.7591208791208792
1485,1.7602442002442005
1486,1.7557509157509157
1487,1.757997557997558
1488,1.768107448107448
1489,1.7624908424908423
1490,1.7624908424908423
1491,1.7636141636141636
1492,1.7782173382173383
1493,1.7703540903540904
1494,1.7658608058608058
1495,1.7703540903540904
1496,1.7714774114774114
1497,1.7703540903540904
1498,1.768107448107448
1499,1.7703540903540904
1500,1.784957264957265
1501,1.779340659340659
1502,1.7692307692307692
1503,1.775970695970696
1504,1.7815873015873016
1505,1.7815873015873016
1506,1.7726007326007327
1507,1.779340659340659
1508,1.784957264957265
1509,1.775970695970696
1510,1.7737240537240535
1511,1.7827106227106226
1512,1.7804639804639804
1513,1.7703540903540904
1514,1.7613675213675213
1515,1.7737240537240535
1516,1.796190476190476
1517,1.7815873015873016
1518,1.7658608058608058
1519,1.7669841269841269
1520,1.775970695970696
1521,1.7669841269841269
1522,1.7636141636141636
1523,1.7613675213675213
1524,1.7658608058608058
1525,1.7669841269841269
1526,1.7557509157509157
1527,1.7613675213675213
1528,1.768107448107448
1529,1.7636141636141636
1530,1.757997557997558
1531,1.7714774114774114
1532,1.7692307692307692
1533,1.7636141636141636
1534,1.7535042735042734
1535,1.7557509157509157
1536,1.757997557997558
1537,1.7467643467643468
1538,1.7445177045177045
1539,1.7669841269841269
1540,1.757997557997558
1541,1.7512576312576311
1542,1.7512576312576311
1543,1.7602442002442005
1544,1.7636141636141636
1545,1.7512576312576311
1546,1.74002442002442
1547,1.7478876678876678
1548,1.7647374847374848
1549,1.7624908424908423
1550,1.7523809523809524
1551,1.7445177045177045
1552,1.7669841269841269
1553,1.7636141636141636
1554,1.7815873015873016
1555,1.8018070818070813
1556,1.8164102564102564
1557,1.822026862026862
1558,1.813040293040293
1559,1.820903540903541
1560,1.820903540903541
1561,1.802930402930403
1562,1.8018070818070813
1563,1.7973137973137974
1564,1.7894505494505497
1565,1.7692307692307692
1566,1.75013431013431
1567,1.7523809523809524
1568,1.7557509157509157
1569,1.7478876678876678
1570,1.7344078144078143
1571,1.737777777777778
1572,1.7422710622710622
1573,1.7467643467643468
1574,1.7422710622710622
1575,1.7445177045177045
1576,1.74002442002442
1577,1.7411477411477412
1578,1.7332844932844933
1579,1.731037851037851
1580,1.6917216117216116
1581,1.7164346764346765
1582,1.9512087912087912
1583,2.4185103785103785
1584,2.963321123321123
1585,3.263247863247863
1586,3.1812454212454213
1587,2.742026862026862
1588,2.230915750915751
1589,1.8736996336996337
1590,1.72991452991453
1591,1.7007081807081808
1592,1.6917216117216116
1593,1.6467887667887668
1594,1.6243223443223442
1595,1.6254456654456657
1596,1.61982905982906
1597,1.6085958485958487
1598,1.593992673992674
1599,1.6007326007326008
1600,1.592869352869353
1601,1.586129426129426
1602,1.5771428571428572
1603,1.5827594627594628
1604,1.5883760683760684
1605,1.5906227106227109
1606,1.604102564102564
1607,1.6108424908424908
1608,1.6074725274725274
1609,1.604102564102564
1610,1.6052258852258852
1611,1.6243223443223442
1612,1.615335775335775
1613,1.6018559218559218
1614,1.604102564102564
1615,1.6108424908424908
1616,1.6097191697191695
1617,1.6007326007326008
1618,1.613089133089133
1619,1.6243223443223442
1620,1.61982905982906
1621,1.631062271062271
1622,1.638925518925519
1623,1.64004884004884
1624,1.6378021978021975
1625,1.638925518925519
1626,1.6299389499389498
1627,1.64004884004884
1628,1.6467887667887668
1629,1.64004884004884
1630,1.6456654456654456
1631,1.6647619047619049
1632,1.684981684981685
1633,1.6973382173382174
1634,1.7096947496947497
1635,1.7411477411477412
1636,1.7546275946275949
1637,1.7557509157509157
1638,1.777094017094017
1639,1.8152869352869352
1640,1.8343833943833945
1641,1.8523565323565323
1642,1.8894261294261288
1643,1.915262515262516
1644,1.932112332112332
1645,1.9264957264957263
1646,1.915262515262516
1647,1.893919413919414
1648,1.875946275946276
1649,1.820903540903541
1650,1.7916971916971918
1651,1.7737240537240535
1652,1.749010989010989
1653,1.7186813186813186
1654,1.6995848595848595
1655,1.684981684981685
1656,1.675995115995116
1657,1.6546520146520147
1658,1.6546520146520147
1659,1.6535286935286937
1660,1.6456654456654456
1661,1.6333089133089134
1662,1.6299389499389498
1663,1.6535286935286937
1664,1.658021978021978
1665,1.6467887667887668
1666,1.6411721611721612
1667,1.6546520146520147
1668,1.6625152625152626
1669,1.6535286935286937
1670,1.6546520146520147
1671,1.6557753357753358
1672,1.658021978021978
1673,1.658021978021978
1674,1.6692551892551892
1675,1.6804884004884004
1676,1.6827350427350427
1677,1.667008547008547
1678,1.6602686202686203
1679,1.678241758241758
1680,1.677118437118437
1681,1.6737484737484738
1682,1.6715018315018315
1683,1.6726251526251523
1684,1.677118437118437
1685,1.6872283272283273
1686,1.6703785103785105
1687,1.686105006105006
1688,1.686105006105006
1689,1.6827350427350427
1690,1.6872283272283273
1691,1.6950915750915752
1692,1.7007081807081808
1693,1.6950915750915752
1694,1.6917216117216116
1695,1.7018315018315018
1696,1.6973382173382174
1697,1.7018315018315018
1698,1.6995848595848595
1699,1.7085714285714286
1700,1.7074481074481074
1701,1.705201465201465
1702,1.7074481074481074
1703,1.7085714285714286
1704,1.7085714285714286
1705,1.7085714285714286
1706,1.7164346764346765
1707,1.7276678876678877
1708,1.731037851037851
1709,1.7153113553113553
1710,1.722051282051282
1711,1.7231746031746031
1712,1.7287912087912087
1713,1.7175579975579975
1714,1.7321611721611725
1715,1.7344078144078143
1716,1.7332844932844933
1717,1.7242979242979244
1718,1.7332844932844933
1719,1.7355311355311356
1720,1.7422710622710622
1721,1.722051282051282
1722,1.731037851037851
1723,1.7467643467643468
1724,1.74002442002442
1725,1.7198046398046398
1726,1.7153113553113553
1727,1.7276678876678877
1728,1.72991452991453
1729,1.731037851037851
1730,1.731037851037851
1731,1.7422710622710622
1732,1.7445177045177045
1733,1.7344078144078143
1734,1.7433943833943837
1735,1.7557509157509157
1736,1.7535042735042734
1737,1.7411477411477412
1738,1.7355311355311356
1739,1.7433943833943837
1740,1.7456410256410255
1741,1.7411477411477412
1742,1.7456410256410255
1743,1.75013431013431
1744,1.7535042735042734
1745,1.7456410256410255
1746,1.757997557997558
1747,1.7602442002442005
1748,1.749010989010989
1749,1.757997557997558
1750,1.7591208791208792
1751,1.756874236874237
1752,1.7523809523809524
1753,1.7456410256410255
1754,1.756874236874237
1755,1.7636141636141636
1756,1.7658608058608058
1757,1.7512576312576311
1758,1.7636141636141636
1759,1.7636141636141636
1760,1.7703540903540904
1761,1.7591208791208792
1762,1.7636141636141636
1763,1.756874236874237
1764,1.7647374847374848
1765,1.7478876678876678
1766,1.7591208791208792
1767,1.7737240537240535
1768,1.7669841269841269
1769,1.756874236874237
1770,1.7658608058608058
1771,1.777094017094017
1772,1.7658608058608058
1773,1.7636141636141636
1774,1.7714774114774114
1775,1.7748473748473748
1776,1.7714774114774114
1777,1.7602442002442005
1778,1.7658608058608058
1779,1.7624908424908423
1780,1.7714774114774114
1781,1.7636141636141636
1782,1.7726007326007327
1783,1.7726007326007327
1784,1.756874236874237
1785,1.7523809523809524
1786,1.757997557997558
1787,1.784957264957265
1788,1.7872039072039072
1789,1.8051770451770448
1790,1.8085470085470088
1791,1.825396825396825
1792,1.831013431013431
1793,1.827643467643468
1794,1.8265201465201464
1795,1.8242735042735043
1796,1.820903540903541
1797,1.8085470085470088
1798,1.823150183150183
1799,1.811916971916972
1800,1.784957264957265
1801,1.756874236874237
1802,1.7658608058608058
1803,1.7692307692307692
1804,1.7613675213675213
1805,1.7535042735042734
1806,1.7669841269841269
1807,1.7658608058608058
1808,1.7557509157509157
1809,1.756874236874237
1810,1.7512576312576311
1811,1.757997557997558
1812,1.7602442002442005
1813,1.7523809523809524
1814,1.7209279609279609
1815,1.7523809523809524
1816,1.932112332112332
1817,2.351111111111111
1818,2.8914285714285715
1819,3.276727716727717
1820,3.2947008547008547
1821,2.85997557997558
1822,2.358974358974359
1823,1.955702075702076
1824,1.7894505494505497
1825,1.7344078144078143
1826,1.7096947496947497
1827,1.7018315018315018
1828,1.6726251526251523
1829,1.6557753357753358
1830,1.6434188034188033
1831,1.6333089133089134
1832,1.6231990231990232
1833,1.6220757020757022
1834,1.6254456654456657
1835,1.6344322344322344
1836,1.6288156288156288
1837,1.6254456654456657
1838,1.6344322344322344
1839,1.6299389499389498
1840,1.620952380952381
1841,1.6254456654456657
1842,1.638925518925519
1843,1.658021978021978
1844,1.6490354090354091
1845,1.6445421245421246
1846,1.659145299145299
1847,1.6602686202686203
1848,1.6557753357753358
1849,1.6546520146520147
1850,1.6636385836385836
1851,1.6681318681318682
1852,1.6625152625152626
1853,1.665885225885226
1854,1.6647619047619049
1855,1.677118437118437
1856,1.665885225885226
1857,1.6602686202686203
1858,1.6726251526251523
1859,1.6793650793650794
1860,1.678241758241758
1861,1.6804884004884004
1862,1.693968253968254
1863,1.6973382173382174
1864,1.6973382173382174
1865,1.693968253968254
1866,1.722051282051282
1867,1.7355311355311356
1868,1.7535042735042734
1869,1.7557509157509157
1870,1.7905738705738703
1871,1.811916971916972
1872,1.81978021978022
1873,1.8512332112332115
1874,1.883809523809524
1875,1.9051526251526247
1876,1.9343589743589744
1877,1.9500854700854704
1878,1.9736752136752136
1879,1.9781684981684984
1880,1.9512087912087912
1881,1.9264957264957263
1882,1.89953601953602
1883,1.866959706959707
1884,1.811916971916972
1885,1.7748473748473748
1886,1.7546275946275949
1887,1.7344078144078143
1888,1.713064713064713
1889,1.6962148962148962
1890,1.6995848595848595
1891,1.6950915750915752
1892,1.6625152625152626
1893,1.6625152625152626
1894,1.6647619047619049
1895,1.6681318681318682
1896,1.6602686202686203
1897,1.6636385836385836
1898,1.677118437118437
1899,1.677118437118437
1900,1.6715018315018315
1901,1.6613919413919414
1902,1.6681318681318682
1903,1.6737484737484738
1904,1.6703785103785105
1905,1.675995115995116
1906,1.6748717948717948
1907,1.6872283272283273
1908,1.6827350427350427
1909,1.6804884004884004
1910,1.6804884004884004
1911,1.6793650793650794
1912,1.677118437118437
1913,1.6827350427350427
1914,1.6894749694749696
1915,1.6905982905982906
1916,1.678241758241758
1917,1.6883516483516483
1918,1.6984615384615385
1919,1.705201465201465
1920,1.6928449328449329
1921,1.6950915750915752
1922,1.7085714285714286
1923,1.7198046398046398
1924,1.7175579975579975
1925,1.7096947496947497
1926,1.7276678876678877
1927,1.7141880341880342
1928,1.7074481074481074
1929,1.713064713064713
1930,1.7254212454212454
1931,1.722051282051282
1932,1.7254212454212454
1933,1.7231746031746031
1934,1.722051282051282
1935,1.7242979242979244
1936,1.7175579975579975
1937,1.7175579975579975
1938,1.7366544566544566
1939,1.7287912087912087
1940,1.72991452991453
1941,1.7411477411477412
1942,1.7445177045177045
1943,1.749010989010989
1944,1.7433943833943837
1945,1.7422710622710622
1946,1.75013431013431
1947,1.749010989010989
1948,1.7321611721611725
1949,1.7366544566544566
1950,1.7478876678876678
1951,1.7422710622710622
1952,1.7433943833943837
1953,1.7344078144078143
1954,1.7456410256410255
1955,1.7456410256410255
1956,1.7366544566544566
1957,1.7445177045177045
1958,1.7478876678876678
1959,1.757997557997558
1960,1.7445177045177045
1961,1.737777777777778
1962,1.7411477411477412
1963,1.7355311355311356
1964,1.7411477411477412
1965,1.738901098901099
1966,1.7456410256410255
1967,1.7456410256410255
1968,1.7422710622710622
1969,1.749010989010989
1970,1.7546275946275949
1971,1.7512576312576311
1972,1.7433943833943837
1973,1.7422710622710622
1974,1.7512576312576311
1975,1.75013431013431
1976,1.7467643467643468
1977,1.7467643467643468
1978,1.7636141636141636
1979,1.7591208791208792
1980,1.7535042735042734
1981,1.7512576312576311
1982,1.75013431013431
1983,1.7512576312576311
1984,1.7445177045177045
1985,1.75013431013431
1986,1.756874236874237
1987,1.7602442002442005
1988,1.7512576312576311
1989,1.75013431013431
1990,1.7557509157509157
1991,1.7591208791208792
1992,1.749010989010989
1993,1.7535042735042734
1994,1.7636141636141636
1995,1.7737240537240535
1996,1.756874236874237
1997,1.7613675213675213
1998,1.7624908424908423
1999,1.7546275946275949
2000,1.7602442002442005
2001,1.7456410256410255
2002,1.757997557997558
2003,1.7546275946275949
2004,1.7557509157509157
2005,1.7546275946275949
2006,1.7692307692307692
2007,1.7624908424908423
2008,1.7557509157509157
2009,1.7478876678876678
2010,1.7624908424908423
2011,1.7546275946275949
2012,1.7467643467643468
2013,1.749010989010989
2014,1.7613675213675213
2015,1.7557509157509157
2016,1.7546275946275949
2017,1.7647374847374848
2018,1.7714774114774114
2019,1.7669841269841269
2020,1.7602442002442005
2021,1.7523809523809524
2022,1.7658608058608058
2023,1.7726007326007327
2024,1.7669841269841269
2025,1.7613675213675213
2026,1.777094017094017
2027,1.7647374847374848
2028,1.75013431013431
2029,1.7535042735042734
2030,1.777094017094017
2031,1.7602442002442005
2032,1.7523809523809524
2033,1.7546275946275949
2034,1.7669841269841269
2035,1.7636141636141636
2036,1.7602442002442005
2037,1.7636141636141636
2038,1.777094017094017
2039,1.7737240537240535
2040,1.7714774114774114
2041,1.7647374847374848
2042,1.777094017094017
2043,1.7726007326007327
2044,1.7703540903540904
2045,1.768107448107448
2046,1.7782173382173383
2047,1.7714774114774114
2048,1.7726007326007327
2049,1.7782173382173383
2050,1.7939438339438338
2051,1.813040293040293
2052,1.8186568986568987
2053,1.8186568986568987
2054,1.813040293040293
2055,1.8107936507936508
2056,1.7905738705738703
2057,1.7916971916971918
2058,1.7669841269841269
2059,1.7591208791208792
2060,1.737777777777778
2061,1.7478876678876678
2062,1.7613675213675213
2063,1.7613675213675213
2064,1.7433943833943837
2065,1.7523809523809524
2066,1.7512576312576311
2067,1.7445177045177045
2068,1.737777777777778
2069,1.7445177045177045
2070,1.7591208791208792
2071,1.7714774114774114
2072,1.749010989010989
2073,1.74002442002442
2074,1.8265201465201464
2075,2.112967032967033
2076,2.5926251526251525
2077,3.0902564102564103
2078,3.3643467643467644
2079,3.195848595848596
2080,2.712820512820513
2081,2.1972161172161173
2082,1.891672771672772
2083,1.7647374847374848
2084,1.702954822954823
2085,1.677118437118437
2086,1.6613919413919414
2087,1.636678876678877
2088,1.611965811965812
2089,1.6187057387057386
2090,1.6029792429792429
2091,1.6085958485958487
2092,1.5838827838827838
2093,1.5973626373626373
2094,1.6142124542124543
2095,1.6085958485958487
2096,1.5973626373626373
2097,1.5996092796092796
2098,1.6074725274725274
2099,1.6052258852258852
