Index,II
0,1.7332844932844933
1,1.7332844932844933
2,1.7815873015873016
3,1.7827106227106226
4,1.7085714285714286
5,1.7287912087912087
6,1.7726007326007327
7,1.768107448107448
8,1.7198046398046398
9,1.7063247863247863
10,1.779340659340659
11,1.9096459096459093
12,2.193846153846154
13,2.707203907203908
14,3.1913553113553115
15,3.318290598290598
16,2.9666910866910867
17,2.505006105006105
18,2.1185836385836385
19,1.8658363858363856
20,1.722051282051282
21,1.686105006105006
22,1.7355311355311356
23,1.6928449328449329
24,1.6220757020757022
25,1.6108424908424908
26,1.6715018315018315
27,1.6456654456654456
28,1.6018559218559218
29,1.5973626373626373
30,1.667008547008547
31,1.6422954822954825
32,1.5996092796092796
33,1.6142124542124543
34,1.6647619047619049
35,1.6524053724053724
36,1.6097191697191695
37,1.6220757020757022
38,1.6984615384615385
39,1.6692551892551892
40,1.6243223443223442
41,1.6378021978021975
42,1.7096947496947497
43,1.6827350427350427
44,1.6231990231990232
45,1.6546520146520147
46,1.7063247863247863
47,1.705201465201465
48,1.636678876678877
49,1.677118437118437
50,1.7287912087912087
51,1.7276678876678877
52,1.667008547008547
53,1.6962148962148962
54,1.7546275946275949
55,1.7467643467643468
56,1.6872283272283273
57,1.7209279609279609
58,1.7995604395604397
59,1.775970695970696
60,1.7467643467643468
61,1.783833943833944
62,1.847863247863248
63,1.8388766788766788
64,1.813040293040293
65,1.8444932844932844
66,1.9298656898656896
67,1.9163858363858364
68,1.8849328449328449
69,1.932112332112332
70,2.0096214896214897
71,1.9725518925518928
72,1.922002442002442
73,1.9253724053724053
74,1.9545787545787543
75,1.895042735042735
76,1.800683760683761
77,1.795067155067155
78,1.8141636141636144
79,1.7478876678876678
80,1.6602686202686203
81,1.6726251526251523
82,1.710818070818071
83,1.659145299145299
84,1.611965811965812
85,1.6411721611721612
86,1.6715018315018315
87,1.6512820512820512
88,1.6063492063492064
89,1.6355555555555557
90,1.6872283272283273
91,1.647912087912088
92,1.6007326007326008
93,1.6411721611721612
94,1.6905982905982906
95,1.6344322344322344
96,1.6029792429792429
97,1.6333089133089134
98,1.6872283272283273
99,1.6422954822954825
100,1.6007326007326008
101,1.64004884004884
102,1.6883516483516483
103,1.659145299145299
104,1.6164590964590964
105,1.6535286935286937
106,1.6905982905982906
107,1.667008547008547
108,1.6142124542124543
109,1.665885225885226
110,1.6995848595848595
111,1.6726251526251523
112,1.6231990231990232
113,1.678241758241758
114,1.7063247863247863
115,1.678241758241758
116,1.6333089133089134
117,1.6804884004884004
118,1.7164346764346765
119,1.6827350427350427
120,1.6411721611721612
121,1.6962148962148962
122,1.7242979242979244
123,1.6917216117216116
124,1.6490354090354091
125,1.7085714285714286
126,1.7276678876678877
127,1.6917216117216116
128,1.6625152625152626
129,1.7063247863247863
130,1.7456410256410255
131,1.683858363858364
132,1.659145299145299
133,1.7198046398046398
134,1.7321611721611725
135,1.6928449328449329
136,1.6715018315018315
137,1.7085714285714286
138,1.7445177045177045
139,1.6905982905982906
140,1.667008547008547
141,1.7332844932844933
142,1.749010989010989
143,1.6950915750915752
144,1.6804884004884004
145,1.7231746031746031
146,1.7512576312576311
147,1.7063247863247863
148,1.6793650793650794
149,1.7445177045177045
150,1.7658608058608058
151,1.7074481074481074
152,1.6962148962148962
153,1.737777777777778
154,1.7692307692307692
155,1.710818070818071
156,1.702954822954823
157,1.7456410256410255
158,1.7658608058608058
159,1.711941391941392
160,1.693968253968254
161,1.7546275946275949
162,1.7624908424908423
163,1.7141880341880342
164,1.693968253968254
165,1.7422710622710622
166,1.7714774114774114
167,1.7085714285714286
168,1.704078144078144
169,1.7512576312576311
170,1.779340659340659
171,1.7175579975579975
172,1.710818070818071
173,1.7591208791208792
174,1.7782173382173383
175,1.7198046398046398
176,1.711941391941392
177,1.775970695970696
178,1.7748473748473748
179,1.737777777777778
180,1.7085714285714286
181,1.775970695970696
182,1.7860805860805862
183,1.738901098901099
184,1.7153113553113553
185,1.7782173382173383
186,1.7894505494505497
187,1.7445177045177045
188,1.7209279609279609
189,1.7804639804639804
190,1.7860805860805862
191,1.7254212454212454
192,1.7276678876678877
193,1.7815873015873016
194,1.802930402930403
195,1.7512576312576311
196,1.7456410256410255
197,1.783833943833944
198,1.8085470085470088
199,1.7422710622710622
200,1.7344078144078143
201,1.7905738705738703
202,1.7973137973137974
203,1.7512576312576311
204,1.7287912087912087
205,1.8085470085470088
206,1.8141636141636144
207,1.7883272283272282
208,1.7827106227106226
209,1.8590964590964592
210,1.8871794871794871
211,1.8512332112332115
212,1.8456166056166057
213,1.902905982905983
214,1.8905494505494504
215,1.8152869352869352
216,1.823150183150183
217,1.8624664224664225
218,1.827643467643468
219,1.7467643467643468
220,1.74002442002442
221,1.783833943833944
222,1.7905738705738703
223,1.7254212454212454
224,1.72991452991453
225,1.7692307692307692
226,1.7815873015873016
227,1.7096947496947497
228,1.7198046398046398
229,1.7703540903540904
230,1.7703540903540904
231,1.6737484737484738
232,1.74002442002442
233,1.989401709401709
234,2.411770451770452
235,2.847619047619048
236,3.173382173382173
237,3.2295482295482296
238,2.8498656898656898
239,2.324151404151404
240,1.9433455433455435
241,1.831013431013431
242,1.7669841269841269
243,1.6613919413919414
244,1.6467887667887668
245,1.6748717948717948
246,1.6613919413919414
247,1.5827594627594628
248,1.6007326007326008
249,1.638925518925519
250,1.6265689865689863
251,1.574896214896215
252,1.5827594627594628
253,1.6355555555555557
254,1.6265689865689863
255,1.5816361416361415
256,1.5962393162393165
257,1.6647619047619049
258,1.6602686202686203
259,1.6108424908424908
260,1.6231990231990232
261,1.678241758241758
262,1.6748717948717948
263,1.6175824175824176
264,1.6254456654456657
265,1.6995848595848595
266,1.675995115995116
267,1.631062271062271
268,1.64004884004884
269,1.7141880341880342
270,1.6917216117216116
271,1.6467887667887668
272,1.667008547008547
273,1.7209279609279609
274,1.7254212454212454
275,1.6703785103785105
276,1.7085714285714286
277,1.757997557997558
278,1.756874236874237
279,1.686105006105006
280,1.738901098901099
281,1.795067155067155
282,1.7995604395604397
283,1.75013431013431
284,1.783833943833944
285,1.8624664224664225
286,1.8781929181929184
287,1.831013431013431
288,1.881562881562881
289,1.9422222222222223
290,1.947838827838828
291,1.891672771672772
292,1.941098901098901
293,1.986031746031746
294,1.9725518925518928
295,1.881562881562881
296,1.8781929181929184
297,1.895042735042735
298,1.8242735042735043
299,1.737777777777778
300,1.7231746031746031
301,1.757997557997558
302,1.6973382173382174
303,1.6344322344322344
304,1.6299389499389498
305,1.684981684981685
306,1.638925518925519
307,1.5771428571428572
308,1.5894993894993894
309,1.658021978021978
310,1.6231990231990232
311,1.5715262515262516
312,1.5984859584859583
313,1.6535286935286937
314,1.6276923076923078
315,1.5771428571428572
316,1.5962393162393165
317,1.656898656898657
318,1.6299389499389498
319,1.5883760683760684
320,1.6085958485958487
321,1.6636385836385836
322,1.6602686202686203
323,1.5996092796092796
324,1.632185592185592
325,1.6726251526251523
326,1.6434188034188033
327,1.5771428571428572
328,1.6052258852258852
329,1.677118437118437
330,1.6434188034188033
331,1.5951159951159952
332,1.6344322344322344
333,1.6883516483516483
334,1.6715018315018315
335,1.6052258852258852
336,1.656898656898657
337,1.6995848595848595
338,1.6647619047619049
339,1.6175824175824176
340,1.6501587301587302
341,1.713064713064713
342,1.6737484737484738
343,1.6231990231990232
344,1.6512820512820512
345,1.7007081807081808
346,1.6681318681318682
347,1.6231990231990232
348,1.6647619047619049
349,1.710818070818071
350,1.6872283272283273
351,1.64004884004884
352,1.6905982905982906
353,1.7231746031746031
354,1.6950915750915752
355,1.6378021978021975
356,1.6894749694749696
357,1.7198046398046398
358,1.683858363858364
359,1.6557753357753358
360,1.6816117216117217
361,1.7242979242979244
362,1.6973382173382174
363,1.6434188034188033
364,1.704078144078144
365,1.7344078144078143
366,1.7096947496947497
367,1.6602686202686203
368,1.6995848595848595
369,1.7546275946275949
370,1.6973382173382174
371,1.6715018315018315
372,1.702954822954823
373,1.731037851037851
374,1.702954822954823
375,1.6647619047619049
376,1.7096947496947497
377,1.7535042735042734
378,1.705201465201465
379,1.6793650793650794
380,1.7153113553113553
381,1.7591208791208792
382,1.711941391941392
383,1.6816117216117217
384,1.7366544566544566
385,1.7703540903540904
386,1.710818070818071
387,1.6894749694749696
388,1.7198046398046398
389,1.7726007326007327
390,1.722051282051282
391,1.702954822954823
392,1.74002442002442
393,1.7624908424908423
394,1.7332844932844933
395,1.6995848595848595
396,1.7433943833943837
397,1.7782173382173383
398,1.7231746031746031
399,1.711941391941392
400,1.757997557997558
401,1.784957264957265
402,1.7254212454212454
403,1.7096947496947497
404,1.768107448107448
405,1.784957264957265
406,1.738901098901099
407,1.7096947496947497
408,1.7748473748473748
409,1.795067155067155
410,1.7478876678876678
411,1.7231746031746031
412,1.7703540903540904
413,1.7939438339438338
414,1.7433943833943837
415,1.7265445665445665
416,1.779340659340659
417,1.7905738705738703
418,1.7433943833943837
419,1.710818070818071
420,1.775970695970696
421,1.7905738705738703
422,1.7602442002442005
423,1.757997557997558
424,1.8186568986568987
425,1.8703296703296703
426,1.843369963369964
427,1.8444932844932844
428,1.8972893772893773
429,1.9017826617826616
430,1.8343833943833945
431,1.8096703296703296
432,1.841123321123321
433,1.8377533577533576
434,1.757997557997558
435,1.7433943833943837
436,1.7804639804639804
437,1.7894505494505497
438,1.7344078144078143
439,1.7175579975579975
440,1.777094017094017
441,1.7782173382173383
442,1.7198046398046398
443,1.710818070818071
444,1.7647374847374848
445,1.7804639804639804
446,1.678241758241758
447,1.6973382173382174
448,1.915262515262516
449,2.2904517704517704
450,2.768986568986569
451,3.117216117216117
452,3.234041514041514
453,2.8768253968253967
454,2.3702075702075702
455,1.9568253968253968
456,1.8388766788766788
457,1.7703540903540904
458,1.693968253968254
459,1.6490354090354091
460,1.6962148962148962
461,1.678241758241758
462,1.6220757020757022
463,1.611965811965812
464,1.6546520146520147
465,1.6647619047619049
466,1.5917460317460317
467,1.5973626373626373
468,1.6490354090354091
469,1.665885225885226
470,1.6018559218559218
471,1.6164590964590964
472,1.6647619047619049
473,1.678241758241758
474,1.6108424908424908
475,1.6254456654456657
476,1.678241758241758
477,1.6872283272283273
478,1.64004884004884
479,1.632185592185592
480,1.7007081807081808
481,1.6917216117216116
482,1.658021978021978
483,1.6422954822954825
484,1.7164346764346765
485,1.7063247863247863
486,1.6647619047619049
487,1.659145299145299
488,1.7276678876678877
489,1.731037851037851
490,1.678241758241758
491,1.686105006105006
492,1.7591208791208792
493,1.7703540903540904
494,1.704078144078144
495,1.7287912087912087
496,1.7973137973137974
497,1.8096703296703296
498,1.7624908424908423
499,1.7726007326007327
500,1.8568498168498169
501,1.8590964590964592
502,1.8265201465201464
503,1.8456166056166057
504,1.9377289377289373
505,1.952332112332112
506,1.89953601953602
507,1.9175091575091567
508,1.9927716727716729
509,1.9714285714285715
510,1.8972893772893773
511,1.8703296703296703
512,1.8894261294261288
513,1.848986568986569
514,1.7478876678876678
515,1.74002442002442
516,1.756874236874237
517,1.7209279609279609
518,1.6378021978021975
519,1.6422954822954825
520,1.675995115995116
521,1.6546520146520147
522,1.6007326007326008
523,1.5906227106227109
524,1.659145299145299
525,1.638925518925519
526,1.585006105006105
527,1.5962393162393165
528,1.6557753357753358
529,1.64004884004884
530,1.5782661782661782
531,1.592869352869353
532,1.6613919413919414
533,1.6445421245421246
534,1.5996092796092796
535,1.6052258852258852
536,1.6602686202686203
537,1.6636385836385836
538,1.5962393162393165
539,1.6231990231990232
540,1.6726251526251523
541,1.6737484737484738
542,1.604102564102564
543,1.61982905982906
544,1.6827350427350427
545,1.6692551892551892
546,1.6243223443223442
547,1.6254456654456657
548,1.7063247863247863
549,1.675995115995116
550,1.6276923076923078
551,1.6344322344322344
552,1.711941391941392
553,1.683858363858364
554,1.6355555555555557
555,1.6456654456654456
556,1.704078144078144
557,1.6984615384615385
558,1.6456654456654456
559,1.658021978021978
560,1.7254212454212454
561,1.6950915750915752
562,1.6490354090354091
563,1.659145299145299
564,1.7254212454212454
565,1.704078144078144
566,1.6422954822954825
567,1.6703785103785105
568,1.722051282051282
569,1.7231746031746031
570,1.6546520146520147
571,1.6726251526251523
572,1.738901098901099
573,1.7175579975579975
574,1.6557753357753358
575,1.686105006105006
576,1.74002442002442
577,1.7321611721611725
578,1.6636385836385836
579,1.6905982905982906
580,1.7478876678876678
581,1.7433943833943837
582,1.677118437118437
583,1.6973382173382174
584,1.7523809523809524
585,1.7422710622710622
586,1.677118437118437
587,1.7085714285714286
588,1.7669841269841269
589,1.72991452991453
590,1.6883516483516483
591,1.7018315018315018
592,1.7703540903540904
593,1.7344078144078143
594,1.6917216117216116
595,1.704078144078144
596,1.7714774114774114
597,1.74002442002442
598,1.6973382173382174
599,1.7141880341880342
600,1.7726007326007327
601,1.7445177045177045
602,1.693968253968254
603,1.7175579975579975
604,1.7703540903540904
605,1.7557509157509157
606,1.6883516483516483
607,1.713064713064713
608,1.7748473748473748
609,1.7422710622710622
610,1.7085714285714286
611,1.7276678876678877
612,1.7916971916971918
613,1.75013431013431
614,1.7175579975579975
615,1.7355311355311356
616,1.783833943833944
617,1.768107448107448
618,1.702954822954823
619,1.75013431013431
620,1.7860805860805862
621,1.7647374847374848
622,1.704078144078144
623,1.737777777777778
624,1.7939438339438338
625,1.75013431013431
626,1.7175579975579975
627,1.7456410256410255
628,1.8018070818070813
629,1.7557509157509157
630,1.7242979242979244
631,1.7512576312576311
632,1.8085470085470088
633,1.7535042735042734
634,1.7175579975579975
635,1.7456410256410255
636,1.7894505494505497
637,1.7782173382173383
638,1.7422710622710622
639,1.784957264957265
640,1.8590964590964592
641,1.832136752136752
642,1.823150183150183
643,1.8624664224664225
644,1.9006593406593408
645,1.8512332112332115
646,1.8085470085470088
647,1.847863247863248
648,1.855726495726496
649,1.7973137973137974
650,1.7366544566544566
651,1.7613675213675213
652,1.8018070818070813
653,1.7546275946275949
654,1.7265445665445665
655,1.7624908424908423
656,1.783833943833944
657,1.737777777777778
658,1.713064713064713
659,1.75013431013431
660,1.802930402930403
661,1.7366544566544566
662,1.6917216117216116
663,1.832136752136752
664,2.13992673992674
665,2.542075702075702
666,2.986910866910867
667,3.291330891330891
668,3.1924786324786325
669,2.7015873015873018
670,2.1691330891330893
671,1.9175091575091567
672,1.8096703296703296
673,1.7265445665445665
674,1.6557753357753358
675,1.6917216117216116
676,1.6917216117216116
677,1.6344322344322344
678,1.5906227106227109
679,1.6355555555555557
680,1.658021978021978
681,1.6018559218559218
682,1.5872527472527471
683,1.6265689865689863
684,1.6501587301587302
685,1.611965811965812
686,1.5838827838827838
687,1.6456654456654456
688,1.6827350427350427
689,1.6175824175824176
690,1.6108424908424908
691,1.6512820512820512
692,1.6883516483516483
693,1.6299389499389498
694,1.6220757020757022
695,1.6681318681318682
696,1.6995848595848595
697,1.6411721611721612
698,1.6276923076923078
699,1.6816117216117217
700,1.7141880341880342
701,1.6625152625152626
702,1.647912087912088
703,1.7198046398046398
704,1.7332844932844933
705,1.6973382173382174
706,1.678241758241758
707,1.75013431013431
708,1.7658608058608058
709,1.7175579975579975
710,1.7242979242979244
711,1.7827106227106226
712,1.8164102564102564
713,1.7636141636141636
714,1.783833943833944
715,1.841123321123321
716,1.8804395604395605
717,1.827643467643468
718,1.8523565323565323
719,1.922002442002442
720,1.9433455433455435
721,1.9096459096459093
722,1.932112332112332
723,1.9972649572649568
724,1.991648351648352
725,1.9264957264957263
726,1.9006593406593408
727,1.9287423687423688
728,1.8927960927960927
729,1.796190476190476
730,1.7557509157509157
731,1.777094017094017
732,1.749010989010989
733,1.677118437118437
734,1.6445421245421246
735,1.6984615384615385
736,1.6793650793650794
737,1.6187057387057386
738,1.6085958485958487
739,1.659145299145299
740,1.665885225885226
741,1.6108424908424908
742,1.6018559218559218
743,1.6625152625152626
744,1.658021978021978
745,1.6063492063492064
746,1.6108424908424908
747,1.6636385836385836
748,1.678241758241758
749,1.611965811965812
750,1.6276923076923078
751,1.6804884004884004
752,1.6793650793650794
753,1.6220757020757022
754,1.6175824175824176
755,1.6905982905982906
756,1.677118437118437
757,1.6344322344322344
758,1.6220757020757022
759,1.6827350427350427
760,1.6984615384615385
761,1.620952380952381
762,1.6276923076923078
763,1.6995848595848595
764,1.6827350427350427
765,1.6456654456654456
766,1.6411721611721612
767,1.711941391941392
768,1.6973382173382174
769,1.6490354090354091
770,1.6546520146520147
771,1.722051282051282
772,1.713064713064713
773,1.6625152625152626
774,1.6703785103785105
775,1.7209279609279609
776,1.7063247863247863
777,1.656898656898657
778,1.6546520146520147
779,1.7231746031746031
780,1.7164346764346765
781,1.6681318681318682
782,1.6793650793650794
783,1.74002442002442
784,1.7096947496947497
785,1.658021978021978
786,1.6715018315018315
787,1.7411477411477412
788,1.7231746031746031
789,1.675995115995116
790,1.678241758241758
791,1.7478876678876678
792,1.722051282051282
793,1.677118437118437
794,1.678241758241758
795,1.757997557997558
796,1.737777777777778
797,1.6883516483516483
798,1.6962148962148962
799,1.7714774114774114
800,1.756874236874237
801,1.6995848595848595
802,1.7007081807081808
803,1.775970695970696
804,1.749010989010989
805,1.7007081807081808
806,1.7085714285714286
807,1.775970695970696
808,1.7478876678876678
809,1.693968253968254
810,1.7096947496947497
811,1.7737240537240535
812,1.757997557997558
813,1.6984615384615385
814,1.711941391941392
815,1.7726007326007327
816,1.7557509157509157
817,1.6894749694749696
818,1.722051282051282
819,1.7669841269841269
820,1.7624908424908423
821,1.705201465201465
822,1.7198046398046398
823,1.7973137973137974
824,1.7591208791208792
825,1.7141880341880342
826,1.731037851037851
827,1.7860805860805862
828,1.7636141636141636
829,1.7085714285714286
830,1.74002442002442
831,1.7973137973137974
832,1.757997557997558
833,1.704078144078144
834,1.7198046398046398
835,1.7860805860805862
836,1.7557509157509157
837,1.7153113553113553
838,1.7332844932844933
839,1.804053724053724
840,1.7726007326007327
841,1.7332844932844933
842,1.7411477411477412
843,1.7995604395604397
844,1.757997557997558
845,1.711941391941392
846,1.738901098901099
847,1.8051770451770448
848,1.7624908424908423
849,1.7096947496947497
850,1.7535042735042734
851,1.813040293040293
852,1.8164102564102564
853,1.7782173382173383
854,1.8343833943833945
855,1.904029304029304
856,1.8725763125763129
857,1.8164102564102564
858,1.82989010989011
859,1.891672771672772
860,1.8388766788766788
861,1.7636141636141636
862,1.7782173382173383
863,1.804053724053724
864,1.7669841269841269
865,1.7007081807081808
866,1.7332844932844933
867,1.7894505494505497
868,1.7512576312576311
869,1.702954822954823
870,1.731037851037851
871,1.7939438339438338
872,1.749010989010989
873,1.7175579975579975
874,1.704078144078144
875,1.7478876678876678
876,1.784957264957265
877,2.005128205128205
878,2.5094993894993896
879,3.023980463980464
880,3.216068376068376
881,3.009377289377289
882,2.6195848595848594
883,2.228669108669109
884,1.8883028083028084
885,1.711941391941392
886,1.704078144078144
887,1.7287912087912087
888,1.6793650793650794
889,1.6097191697191695
890,1.6355555555555557
891,1.6625152625152626
892,1.6175824175824176
893,1.5692796092796093
894,1.5984859584859583
895,1.6501587301587302
896,1.6243223443223442
897,1.5782661782661782
898,1.631062271062271
899,1.6737484737484738
900,1.6333089133089134
901,1.592869352869353
902,1.6411721611721612
903,1.6726251526251523
904,1.636678876678877
905,1.5962393162393165
906,1.6501587301587302
907,1.686105006105006
908,1.659145299145299
909,1.611965811965812
910,1.6681318681318682
911,1.6984615384615385
912,1.667008547008547
913,1.6288156288156288
914,1.6692551892551892
915,1.7198046398046398
916,1.675995115995116
917,1.6512820512820512
918,1.6894749694749696
919,1.7366544566544566
920,1.7242979242979244
921,1.6917216117216116
922,1.7535042735042734
923,1.7883272283272282
924,1.7523809523809524
925,1.737777777777778
926,1.779340659340659
927,1.847863247863248
928,1.820903540903541
929,1.8186568986568987
930,1.857973137973138
931,1.927619047619048
932,1.8883028083028084
933,1.8927960927960927
934,1.9388522588522588
935,2.0017582417582416
936,1.9512087912087912
937,1.9264957264957263
938,1.9377289377289373
939,1.9433455433455435
940,1.8613431013431008
941,1.7894505494505497
942,1.7984371184371184
943,1.7872039072039072
944,1.722051282051282
945,1.6467887667887668
946,1.6726251526251523
947,1.678241758241758
948,1.6175824175824176
949,1.5827594627594628
950,1.6355555555555557
951,1.6613919413919414
952,1.6007326007326008
953,1.585006105006105
954,1.6276923076923078
955,1.6378021978021975
956,1.5984859584859583
957,1.5726495726495726
958,1.6299389499389498
959,1.6422954822954825
960,1.6097191697191695
961,1.573772893772894
962,1.6344322344322344
963,1.6490354090354091
964,1.6074725274725274
965,1.5816361416361415
966,1.6333089133089134
967,1.6647619047619049
968,1.6175824175824176
969,1.5951159951159952
970,1.659145299145299
971,1.677118437118437
972,1.6231990231990232
973,1.6029792429792429
974,1.6512820512820512
975,1.6816117216117217
976,1.6175824175824176
977,1.6142124542124543
978,1.665885225885226
979,1.693968253968254
980,1.6276923076923078
981,1.632185592185592
982,1.6703785103785105
983,1.7063247863247863
984,1.6490354090354091
985,1.6378021978021975
986,1.6894749694749696
987,1.693968253968254
988,1.659145299145299
989,1.6288156288156288
990,1.6995848595848595
991,1.7007081807081808
992,1.6524053724053724
993,1.64004884004884
994,1.678241758241758
995,1.713064713064713
996,1.6512820512820512
997,1.6512820512820512
998,1.7018315018315018
999,1.7186813186813186
1000,1.659145299145299
1001,1.6524053724053724
1002,1.7085714285714286
1003,1.7265445665445665
1004,1.6748717948717948
1005,1.6557753357753358
1006,1.7198046398046398
1007,1.722051282051282
1008,1.6827350427350427
1009,1.6647619047619049
1010,1.7231746031746031
1011,1.731037851037851
1012,1.693968253968254
1013,1.6681318681318682
1014,1.737777777777778
1015,1.737777777777778
1016,1.6928449328449329
1017,1.683858363858364
1018,1.7332844932844933
1019,1.7546275946275949
1020,1.6928449328449329
1021,1.6962148962148962
1022,1.7366544566544566
1023,1.7591208791208792
1024,1.6973382173382174
1025,1.704078144078144
1026,1.7512576312576311
1027,1.7726007326007327
1028,1.7074481074481074
1029,1.7018315018315018
1030,1.757997557997558
1031,1.7636141636141636
1032,1.711941391941392
1033,1.6905982905982906
1034,1.756874236874237
1035,1.7703540903540904
1036,1.7063247863247863
1037,1.7074481074481074
1038,1.7669841269841269
1039,1.7636141636141636
1040,1.7198046398046398
1041,1.7085714285714286
1042,1.7726007326007327
1043,1.779340659340659
1044,1.7096947496947497
1045,1.7254212454212454
1046,1.7737240537240535
1047,1.7726007326007327
1048,1.7153113553113553
1049,1.7074481074481074
1050,1.7748473748473748
1051,1.775970695970696
1052,1.7186813186813186
1053,1.7321611721611725
1054,1.802930402930403
1055,1.8186568986568987
1056,1.7737240537240535
1057,1.8141636141636144
1058,1.883809523809524
1059,1.886056166056166
1060,1.820903540903541
1061,1.8377533577533576
1062,1.869206349206349
1063,1.8635897435897435
1064,1.775970695970696
1065,1.757997557997558
1066,1.8085470085470088
1067,1.7804639804639804
1068,1.7276678876678877
1069,1.722051282051282
1070,1.7883272283272282
1071,1.7658608058608058
1072,1.7153113553113553
1073,1.7085714285714286
1074,1.777094017094017
1075,1.757997557997558
1076,1.7096947496947497
1077,1.6995848595848595
1078,1.7332844932844933
1079,1.804053724053724
1080,1.977045177045177
1081,2.453333333333333
1082,2.9947741147741147
1083,3.267741147741148
1084,3.091379731379732
1085,2.6802442002442004
1086,2.2646153846153845
1087,1.9388522588522588
1088,1.7287912087912087
1089,1.693968253968254
1090,1.7287912087912087
1091,1.7085714285714286
1092,1.6164590964590964
1093,1.6175824175824176
1094,1.6692551892551892
1095,1.6445421245421246
1096,1.5906227106227109
1097,1.5917460317460317
1098,1.6647619047619049
1099,1.6445421245421246
1100,1.593992673992674
1101,1.604102564102564
1102,1.656898656898657
1103,1.658021978021978
1104,1.6007326007326008
1105,1.6142124542124543
1106,1.6872283272283273
1107,1.6625152625152626
1108,1.613089133089133
1109,1.6355555555555557
1110,1.6894749694749696
1111,1.6894749694749696
1112,1.6220757020757022
1113,1.6501587301587302
1114,1.7175579975579975
1115,1.7096947496947497
1116,1.64004884004884
1117,1.6737484737484738
1118,1.7254212454212454
1119,1.7254212454212454
1120,1.665885225885226
1121,1.6872283272283273
1122,1.7624908424908423
1123,1.749010989010989
1124,1.6928449328449329
1125,1.7287912087912087
1126,1.7905738705738703
1127,1.7905738705738703
1128,1.7355311355311356
1129,1.7872039072039072
1130,1.8523565323565323
1131,1.841123321123321
1132,1.8186568986568987
1133,1.855726495726496
1134,1.9309890109890109
1135,1.9298656898656896
1136,1.886056166056166
1137,1.9377289377289373
1138,2.0141147741147742
1139,1.986031746031746
1140,1.932112332112332
1141,1.9287423687423688
1142,1.9714285714285715
1143,1.8984126984126983
1144,1.8085470085470088
1145,1.784957264957265
1146,1.8164102564102564
1147,1.757997557997558
1148,1.6737484737484738
1149,1.6636385836385836
1150,1.7074481074481074
1151,1.6602686202686203
1152,1.6097191697191695
1153,1.615335775335775
1154,1.6816117216117217
1155,1.64004884004884
1156,1.5917460317460317
1157,1.61982905982906
1158,1.6613919413919414
1159,1.6524053724053724
1160,1.5838827838827838
1161,1.6276923076923078
1162,1.6726251526251523
1163,1.6501587301587302
1164,1.586129426129426
1165,1.6288156288156288
1166,1.6793650793650794
1167,1.647912087912088
1168,1.6085958485958487
1169,1.6299389499389498
1170,1.683858363858364
1171,1.6602686202686203
1172,1.6018559218559218
1173,1.6422954822954825
1174,1.6883516483516483
1175,1.6647619047619049
1176,1.6231990231990232
1177,1.647912087912088
1178,1.7063247863247863
1179,1.6793650793650794
1180,1.6333089133089134
1181,1.659145299145299
1182,1.7063247863247863
1183,1.6917216117216116
1184,1.6231990231990232
1185,1.6748717948717948
1186,1.7141880341880342
1187,1.6883516483516483
1188,1.6434188034188033
1189,1.678241758241758
1190,1.7355311355311356
1191,1.6894749694749696
1192,1.6467887667887668
1193,1.678241758241758
1194,1.738901098901099
1195,1.693968253968254
1196,1.6636385836385836
1197,1.6883516483516483
1198,1.74002442002442
1199,1.704078144078144
1200,1.665885225885226
1201,1.7085714285714286
1202,1.7433943833943837
1203,1.702954822954823
1204,1.675995115995116
1205,1.6995848595848595
1206,1.7613675213675213
1207,1.7096947496947497
1208,1.6804884004884004
1209,1.702954822954823
1210,1.757997557997558
1211,1.7164346764346765
1212,1.6647619047619049
1213,1.7074481074481074
1214,1.7512576312576311
1215,1.7254212454212454
1216,1.6681318681318682
1217,1.722051282051282
1218,1.7523809523809524
1219,1.7153113553113553
1220,1.6816117216117217
1221,1.7332844932844933
1222,1.7624908424908423
1223,1.7276678876678877
1224,1.6950915750915752
1225,1.7287912087912087
1226,1.775970695970696
1227,1.7198046398046398
1228,1.6950915750915752
1229,1.7366544566544566
1230,1.7624908424908423
1231,1.7287912087912087
1232,1.6995848595848595
1233,1.7433943833943837
1234,1.7860805860805862
1235,1.7276678876678877
1236,1.7018315018315018
1237,1.7557509157509157
1238,1.7669841269841269
1239,1.7366544566544566
1240,1.713064713064713
1241,1.756874236874237
1242,1.779340659340659
1243,1.7366544566544566
1244,1.713064713064713
1245,1.7591208791208792
1246,1.7872039072039072
1247,1.7321611721611725
1248,1.7063247863247863
1249,1.7636141636141636
1250,1.7804639804639804
1251,1.7321611721611725
1252,1.710818070818071
1253,1.7546275946275949
1254,1.7872039072039072
1255,1.7276678876678877
1256,1.7063247863247863
1257,1.7602442002442005
1258,1.7726007326007327
1259,1.7344078144078143
1260,1.7411477411477412
1261,1.7883272283272282
1262,1.81978021978022
1263,1.796190476190476
1264,1.8051770451770448
1265,1.869206349206349
1266,1.8905494505494504
1267,1.8152869352869352
1268,1.8063003663003665
1269,1.8523565323565323
1270,1.847863247863248
1271,1.777094017094017
1272,1.737777777777778
1273,1.7804639804639804
1274,1.779340659340659
1275,1.7276678876678877
1276,1.7085714285714286
1277,1.7669841269841269
1278,1.777094017094017
1279,1.710818070818071
1280,1.704078144078144
1281,1.757997557997558
1282,1.779340659340659
1283,1.7164346764346765
1284,1.6905982905982906
1285,1.8164102564102564
1286,2.021978021978022
1287,2.3645909645909646
1288,2.8745787545787547
1289,3.253137973137973
1290,3.243028083028083
1291,2.7993162393162394
1292,2.2882051282051283
1293,1.9905250305250304
1294,1.8141636141636144
1295,1.686105006105006
1296,1.675995115995116
1297,1.6962148962148962
1298,1.6872283272283273
1299,1.5962393162393165
1300,1.5973626373626373
1301,1.656898656898657
1302,1.638925518925519
1303,1.5692796092796093
1304,1.586129426129426
1305,1.6490354090354091
1306,1.6434188034188033
1307,1.5838827838827838
1308,1.5894993894993894
1309,1.667008547008547
1310,1.6467887667887668
1311,1.5973626373626373
1312,1.6018559218559218
1313,1.6804884004884004
1314,1.6748717948717948
1315,1.604102564102564
1316,1.6288156288156288
1317,1.683858363858364
1318,1.683858363858364
1319,1.6164590964590964
1320,1.6501587301587302
1321,1.6984615384615385
1322,1.7085714285714286
1323,1.6378021978021975
1324,1.6737484737484738
1325,1.7321611721611725
1326,1.7254212454212454
1327,1.6726251526251523
1328,1.6872283272283273
1329,1.7602442002442005
1330,1.749010989010989
1331,1.6984615384615385
1332,1.7332844932844933
1333,1.7883272283272282
1334,1.7939438339438338
1335,1.7411477411477412
1336,1.795067155067155
1337,1.8613431013431008
1338,1.866959706959707
1339,1.825396825396825
1340,1.869206349206349
1341,1.96019536019536
1342,1.9433455433455435
1343,1.915262515262516
1344,1.9467155067155064
1345,2.0129914529914528
1346,1.993894993894994
1347,1.904029304029304
1348,1.8905494505494504
1349,1.920879120879121
1350,1.855726495726496
1351,1.7703540903540904
1352,1.75013431013431
1353,1.7782173382173383
1354,1.74002442002442
1355,1.64004884004884
1356,1.6546520146520147
1357,1.6950915750915752
1358,1.6490354090354091
1359,1.586129426129426
1360,1.6220757020757022
1361,1.6613919413919414
1362,1.636678876678877
1363,1.5805128205128205
1364,1.5984859584859583
1365,1.6613919413919414
1366,1.6378021978021975
1367,1.5816361416361415
1368,1.6265689865689863
1369,1.6804884004884004
1370,1.6467887667887668
1371,1.5996092796092796
1372,1.6254456654456657
1373,1.6894749694749696
1374,1.6535286935286937
1375,1.6074725274725274
1376,1.6299389499389498
1377,1.6816117216117217
1378,1.665885225885226
1379,1.593992673992674
1380,1.632185592185592
1381,1.6804884004884004
1382,1.6647619047619049
1383,1.5951159951159952
1384,1.638925518925519
1385,1.686105006105006
1386,1.6692551892551892
1387,1.620952380952381
1388,1.64004884004884
1389,1.7074481074481074
1390,1.6816117216117217
1391,1.647912087912088
1392,1.6737484737484738
1393,1.7422710622710622
1394,1.722051282051282
1395,1.6827350427350427
1396,1.7366544566544566
1397,1.7872039072039072
1398,1.7692307692307692
1399,1.722051282051282
1400,1.72991452991453
1401,1.74002442002442
1402,1.6827350427350427
1403,1.6142124542124543
1404,1.6647619047619049
1405,1.7242979242979244
1406,1.6995848595848595
1407,1.6535286935286937
1408,1.665885225885226
1409,1.7153113553113553
1410,1.683858363858364
1411,1.638925518925519
1412,1.6692551892551892
1413,1.7164346764346765
1414,1.6995848595848595
1415,1.6434188034188033
1416,1.678241758241758
1417,1.7512576312576311
1418,1.6905982905982906
1419,1.667008547008547
1420,1.855726495726496
1421,2.241025641025641
1422,2.7105738705738704
1423,3.016117216117216
1424,3.116092796092796
1425,2.857728937728938
1426,2.3724542124542123
1427,1.9197557997558
1428,1.777094017094017
1429,1.7411477411477412
1430,1.6872283272283273
1431,1.61982905982906
1432,1.6220757020757022
1433,1.665885225885226
1434,1.611965811965812
1435,1.5647863247863247
1436,1.592869352869353
1437,1.6456654456654456
1438,1.6220757020757022
1439,1.567032967032967
1440,1.5996092796092796
1441,1.6355555555555557
1442,1.615335775335775
1443,1.5625396825396825
1444,1.615335775335775
1445,1.6602686202686203
1446,1.61982905982906
1447,1.5816361416361415
1448,1.6344322344322344
1449,1.6681318681318682
1450,1.636678876678877
1451,1.6108424908424908
1452,1.6467887667887668
1453,1.6962148962148962
1454,1.667008547008547
1455,1.61982905982906
1456,1.6793650793650794
1457,1.7175579975579975
1458,1.6950915750915752
1459,1.656898656898657
1460,1.7096947496947497
1461,1.7478876678876678
1462,1.7287912087912087
1463,1.6928449328449329
1464,1.75013431013431
1465,1.813040293040293
1466,1.7748473748473748
1467,1.7591208791208792
1468,1.8186568986568987
1469,1.871452991452992
1470,1.8658363858363856
1471,1.86021978021978
1472,1.922002442002442
1473,1.9691819291819288
1474,1.9545787545787543
1475,1.9253724053724053
1476,1.993894993894994
1477,2.015238095238096
1478,1.959072039072039
1479,1.9017826617826616
1480,1.9051526251526247
1481,1.8871794871794871
1482,1.8152869352869352
1483,1.7254212454212454
1484,1.7433943833943837
1485,1.722051282051282
1486,1.64004884004884
1487,1.592869352869353
1488,1.6467887667887668
1489,1.6456654456654456
1490,1.6029792429792429
1491,1.5636630036630037
1492,1.6063492063492064
1493,1.6411721611721612
1494,1.5793894993894997
1495,1.565909645909646
1496,1.6018559218559218
1497,1.6445421245421246
1498,1.5838827838827838
1499,1.574896214896215
1500,1.615335775335775
1501,1.6501587301587302
1502,1.5917460317460317
1503,1.585006105006105
1504,1.6288156288156288
1505,1.6557753357753358
1506,1.5962393162393165
1507,1.5917460317460317
1508,1.632185592185592
1509,1.6681318681318682
1510,1.6052258852258852
1511,1.604102564102564
1512,1.6434188034188033
1513,1.677118437118437
1514,1.6265689865689863
1515,1.611965811965812
1516,1.658021978021978
1517,1.6827350427350427
1518,1.6243223443223442
1519,1.613089133089133
1520,1.6703785103785105
1521,1.6917216117216116
1522,1.647912087912088
1523,1.61982905982906
1524,1.6905982905982906
1525,1.6984615384615385
1526,1.638925518925519
1527,1.61982905982906
1528,1.6816117216117217
1529,1.6995848595848595
1530,1.6490354090354091
1531,1.6524053724053724
1532,1.7164346764346765
1533,1.7332844932844933
1534,1.6625152625152626
1535,1.6467887667887668
1536,1.6917216117216116
1537,1.7231746031746031
1538,1.656898656898657
1539,1.658021978021978
1540,1.7186813186813186
1541,1.7344078144078143
1542,1.683858363858364
1543,1.656898656898657
1544,1.7198046398046398
1545,1.72991452991453
1546,1.6737484737484738
1547,1.667008547008547
1548,1.7332844932844933
1549,1.7366544566544566
1550,1.704078144078144
1551,1.678241758241758
1552,1.7445177045177045
1553,1.7456410256410255
1554,1.6995848595848595
1555,1.6883516483516483
1556,1.738901098901099
1557,1.7557509157509157
1558,1.6950915750915752
1559,1.704078144078144
1560,1.7557509157509157
1561,1.7703540903540904
1562,1.6973382173382174
1563,1.7007081807081808
1564,1.7591208791208792
1565,1.757997557997558
1566,1.711941391941392
1567,1.6962148962148962
1568,1.768107448107448
1569,1.7669841269841269
1570,1.7242979242979244
1571,1.711941391941392
1572,1.7726007326007327
1573,1.775970695970696
1574,1.7175579975579975
1575,1.722051282051282
1576,1.7804639804639804
1577,1.7714774114774114
1578,1.722051282051282
1579,1.7287912087912087
1580,1.768107448107448
1581,1.783833943833944
1582,1.7153113553113553
1583,1.7254212454212454
1584,1.784957264957265
1585,1.779340659340659
1586,1.7198046398046398
1587,1.731037851037851
1588,1.7860805860805862
1589,1.777094017094017
1590,1.7366544566544566
1591,1.722051282051282
1592,1.7973137973137974
1593,1.7939438339438338
1594,1.731037851037851
1595,1.7478876678876678
1596,1.7939438339438338
1597,1.7939438339438338
1598,1.7366544566544566
1599,1.7355311355311356
1600,1.811916971916972
1601,1.7939438339438338
1602,1.7366544566544566
1603,1.7445177045177045
1604,1.8186568986568987
1605,1.7916971916971918
1606,1.738901098901099
1607,1.7456410256410255
1608,1.8018070818070813
1609,1.7939438339438338
1610,1.7355311355311356
1611,1.7411477411477412
1612,1.8152869352869352
1613,1.796190476190476
1614,1.7467643467643468
1615,1.749010989010989
1616,1.8141636141636144
1617,1.7916971916971918
1618,1.7467643467643468
1619,1.7467643467643468
1620,1.8141636141636144
1621,1.804053724053724
1622,1.7512576312576311
1623,1.7602442002442005
1624,1.822026862026862
1625,1.7984371184371184
1626,1.7366544566544566
1627,1.7658608058608058
1628,1.8164102564102564
1629,1.7995604395604397
1630,1.7467643467643468
1631,1.7512576312576311
1632,1.8107936507936508
1633,1.8063003663003665
1634,1.7287912087912087
1635,1.749010989010989
1636,1.811916971916972
1637,1.7883272283272282
1638,1.738901098901099
1639,1.784957264957265
1640,1.843369963369964
1641,1.8456166056166057
1642,1.8085470085470088
1643,1.8355067155067155
1644,1.907399267399268
1645,1.8804395604395605
1646,1.822026862026862
1647,1.847863247863248
1648,1.8894261294261288
1649,1.8534798534798536
1650,1.7883272283272282
1651,1.775970695970696
1652,1.8343833943833945
1653,1.7883272283272282
1654,1.731037851037851
1655,1.7613675213675213
1656,1.8096703296703296
1657,1.7726007326007327
1658,1.7198046398046398
1659,1.7535042735042734
1660,1.7905738705738703
1661,1.7782173382173383
1662,1.7287912087912087
1663,1.7231746031746031
1664,1.8063003663003665
1665,1.9163858363858364
1666,2.193846153846154
1667,2.716190476190476
1668,3.183492063492064
1669,3.335140415140415
1670,2.995897435897436
1671,2.537582417582417
1672,2.1466666666666665
1673,1.8635897435897435
1674,1.7265445665445665
1675,1.7018315018315018
1676,1.731037851037851
1677,1.6816117216117217
1678,1.604102564102564
1679,1.6164590964590964
1680,1.6737484737484738
1681,1.6288156288156288
1682,1.5917460317460317
1683,1.6074725274725274
1684,1.6546520146520147
1685,1.64004884004884
1686,1.5838827838827838
1687,1.6108424908424908
1688,1.6793650793650794
1689,1.6355555555555557
1690,1.5984859584859583
1691,1.6164590964590964
1692,1.6905982905982906
1693,1.6557753357753358
1694,1.6018559218559218
1695,1.6467887667887668
1696,1.6917216117216116
1697,1.6726251526251523
1698,1.615335775335775
1699,1.6512820512820512
1700,1.7175579975579975
1701,1.6816117216117217
1702,1.6378021978021975
1703,1.6613919413919414
1704,1.7332844932844933
1705,1.6995848595848595
1706,1.6445421245421246
1707,1.6917216117216116
1708,1.737777777777778
1709,1.7242979242979244
1710,1.675995115995116
1711,1.7321611721611725
1712,1.7872039072039072
1713,1.7591208791208792
1714,1.731037851037851
1715,1.7804639804639804
1716,1.841123321123321
1717,1.8164102564102564
1718,1.7995604395604397
1719,1.84
1720,1.914139194139194
1721,1.907399267399268
1722,1.8883028083028084
1723,1.932112332112332
1724,2.007374847374847
1725,1.9691819291819288
1726,1.9287423687423688
1727,1.9433455433455435
1728,1.963565323565324
1729,1.8984126984126983
1730,1.804053724053724
1731,1.8085470085470088
1732,1.8175335775335768
1733,1.74002442002442
1734,1.677118437118437
1735,1.6950915750915752
1736,1.713064713064713
1737,1.6546520146520147
1738,1.6108424908424908
1739,1.647912087912088
1740,1.677118437118437
1741,1.6299389499389498
1742,1.5906227106227109
1743,1.638925518925519
1744,1.6816117216117217
1745,1.6265689865689863
1746,1.5872527472527471
1747,1.636678876678877
1748,1.678241758241758
1749,1.6467887667887668
1750,1.6175824175824176
1751,1.6445421245421246
1752,1.6793650793650794
1753,1.6602686202686203
1754,1.6220757020757022
1755,1.6524053724053724
1756,1.6872283272283273
1757,1.6512820512820512
1758,1.6254456654456657
1759,1.6512820512820512
1760,1.6917216117216116
1761,1.6524053724053724
1762,1.613089133089133
1763,1.6692551892551892
1764,1.7018315018315018
1765,1.656898656898657
1766,1.620952380952381
1767,1.675995115995116
1768,1.7074481074481074
1769,1.6726251526251523
1770,1.632185592185592
1771,1.6703785103785105
1772,1.704078144078144
1773,1.6681318681318682
1774,1.632185592185592
1775,1.6950915750915752
1776,1.731037851037851
1777,1.686105006105006
1778,1.6456654456654456
1779,1.693968253968254
1780,1.731037851037851
1781,1.693968253968254
1782,1.6512820512820512
1783,1.6917216117216116
1784,1.7254212454212454
1785,1.6950915750915752
1786,1.658021978021978
1787,1.6962148962148962
1788,1.7254212454212454
1789,1.6905982905982906
1790,1.6636385836385836
1791,1.704078144078144
1792,1.74002442002442
1793,1.6905982905982906
1794,1.659145299145299
1795,1.722051282051282
1796,1.7535042735042734
1797,1.6995848595848595
1798,1.6692551892551892
1799,1.7265445665445665
1800,1.75013431013431
1801,1.6995848595848595
1802,1.6726251526251523
1803,1.7231746031746031
1804,1.757997557997558
1805,1.7209279609279609
1806,1.6894749694749696
1807,1.74002442002442
1808,1.768107448107448
1809,1.711941391941392
1810,1.6950915750915752
1811,1.731037851037851
1812,1.757997557997558
1813,1.7242979242979244
1814,1.6872283272283273
1815,1.7321611721611725
1816,1.7546275946275949
1817,1.72991452991453
1818,1.704078144078144
1819,1.7411477411477412
1820,1.7624908424908423
1821,1.7276678876678877
1822,1.704078144078144
1823,1.757997557997558
1824,1.7748473748473748
1825,1.7209279609279609
1826,1.705201465201465
1827,1.7613675213675213
1828,1.7703540903540904
1829,1.7175579975579975
1830,1.7063247863247863
1831,1.7658608058608058
1832,1.7894505494505497
1833,1.7265445665445665
1834,1.7175579975579975
1835,1.777094017094017
1836,1.784957264957265
1837,1.7287912087912087
1838,1.7085714285714286
1839,1.7624908424908423
1840,1.7782173382173383
1841,1.731037851037851
1842,1.7242979242979244
1843,1.779340659340659
1844,1.7827106227106226
1845,1.7287912087912087
1846,1.7209279609279609
1847,1.777094017094017
1848,1.7973137973137974
1849,1.7276678876678877
1850,1.7141880341880342
1851,1.7872039072039072
1852,1.7928205128205128
1853,1.7265445665445665
1854,1.7186813186813186
1855,1.777094017094017
1856,1.7827106227106226
1857,1.7355311355311356
1858,1.7332844932844933
1859,1.7883272283272282
1860,1.784957264957265
1861,1.7276678876678877
1862,1.7265445665445665
1863,1.7872039072039072
1864,1.7905738705738703
1865,1.7254212454212454
1866,1.7242979242979244
1867,1.7984371184371184
1868,1.8051770451770448
1869,1.756874236874237
1870,1.779340659340659
1871,1.8467399267399267
1872,1.8658363858363856
1873,1.804053724053724
1874,1.796190476190476
1875,1.8534798534798536
1876,1.8355067155067155
1877,1.7636141636141636
1878,1.7433943833943837
1879,1.796190476190476
1880,1.783833943833944
1881,1.7242979242979244
1882,1.7209279609279609
1883,1.779340659340659
1884,1.775970695970696
1885,1.74002442002442
1886,1.7366544566544566
1887,1.7894505494505497
1888,1.7860805860805862
1889,1.737777777777778
1890,1.7321611721611725
1891,1.757997557997558
1892,1.7984371184371184
1893,1.8984126984126983
1894,2.269108669108669
1895,2.833015873015873
1896,3.211575091575092
1897,3.2104517704517703
1898,2.888058608058608
1899,2.478046398046398
1900,2.075897435897436
1901,1.795067155067155
1902,1.7186813186813186
1903,1.7411477411477412
1904,1.7186813186813186
1905,1.6434188034188033
1906,1.6333089133089134
1907,1.677118437118437
1908,1.6625152625152626
1909,1.5917460317460317
1910,1.5917460317460317
1911,1.6467887667887668
1912,1.6411721611721612
1913,1.6007326007326008
1914,1.6142124542124543
1915,1.6647619047619049
1916,1.658021978021978
1917,1.6018559218559218
1918,1.6187057387057386
1919,1.6748717948717948
1920,1.6703785103785105
1921,1.6018559218559218
1922,1.61982905982906
1923,1.6872283272283273
1924,1.677118437118437
1925,1.6175824175824176
1926,1.6333089133089134
1927,1.7074481074481074
1928,1.693968253968254
1929,1.6434188034188033
1930,1.6602686202686203
1931,1.7175579975579975
1932,1.7276678876678877
1933,1.659145299145299
1934,1.683858363858364
1935,1.75013431013431
1936,1.7422710622710622
1937,1.6883516483516483
1938,1.722051282051282
1939,1.7883272283272282
1940,1.7916971916971918
1941,1.7366544566544566
1942,1.7815873015873016
1943,1.843369963369964
1944,1.8388766788766788
1945,1.802930402930403
1946,1.831013431013431
1947,1.9242490842490845
1948,1.9332356532356527
1949,1.87931623931624
1950,1.9175091575091567
1951,2.004004884004884
1952,1.991648351648352
1953,1.935482295482296
1954,1.9377289377289373
1955,1.952332112332112
1956,1.9051526251526247
1957,1.8074236874236875
1958,1.7714774114774114
1959,1.7984371184371184
1960,1.7602442002442005
1961,1.665885225885226
1962,1.659145299145299
1963,1.7007081807081808
1964,1.6557753357753358
1965,1.5827594627594628
1966,1.604102564102564
1967,1.6546520146520147
1968,1.6333089133089134
1969,1.5917460317460317
1970,1.6029792429792429
1971,1.658021978021978
1972,1.6299389499389498
1973,1.5782661782661782
1974,1.6018559218559218
1975,1.6602686202686203
1976,1.6411721611721612
1977,1.5805128205128205
1978,1.6097191697191695
1979,1.6636385836385836
1980,1.638925518925519
1981,1.604102564102564
1982,1.6220757020757022
1983,1.683858363858364
1984,1.6524053724053724
1985,1.6052258852258852
1986,1.620952380952381
1987,1.6726251526251523
1988,1.6636385836385836
1989,1.5973626373626373
1990,1.6108424908424908
1991,1.6905982905982906
1992,1.667008547008547
1993,1.6097191697191695
1994,1.656898656898657
1995,1.7085714285714286
1996,1.693968253968254
1997,1.6411721611721612
1998,1.678241758241758
1999,1.7557509157509157
2000,1.7433943833943837
2001,1.710818070818071
2002,1.72991452991453
2003,1.784957264957265
2004,1.74002442002442
2005,1.632185592185592
2006,1.632185592185592
2007,1.683858363858364
2008,1.6816117216117217
2009,1.6422954822954825
2010,1.658021978021978
2011,1.713064713064713
2012,1.6827350427350427
2013,1.6288156288156288
2014,1.658021978021978
2015,1.6962148962148962
2016,1.6715018315018315
2017,1.632185592185592
2018,1.6501587301587302
2019,1.7141880341880342
2020,1.6995848595848595
2021,1.6501587301587302
2022,1.6557753357753358
2023,1.713064713064713
2024,1.7782173382173383
2025,2.005128205128205
2026,2.496019536019536
2027,2.9981440781440782
2028,3.178998778998779
2029,2.894798534798535
2030,2.494896214896215
2031,2.121953601953602
2032,1.82989010989011
2033,1.6827350427350427
2034,1.6703785103785105
2035,1.705201465201465
2036,1.6546520146520147
2037,1.5816361416361415
2038,1.593992673992674
2039,1.659145299145299
2040,1.6254456654456657
2041,1.5692796092796093
2042,1.5996092796092796
2043,1.6378021978021975
2044,1.6085958485958487
2045,1.5715262515262516
2046,1.593992673992674
2047,1.6445421245421246
2048,1.6299389499389498
2049,1.576019536019536
2050,1.6085958485958487
2051,1.6692551892551892
2052,1.638925518925519
2053,1.593992673992674
2054,1.636678876678877
2055,1.6793650793650794
2056,1.6602686202686203
2057,1.6097191697191695
2058,1.6456654456654456
2059,1.7141880341880342
2060,1.684981684981685
2061,1.64004884004884
2062,1.6883516483516483
2063,1.7366544566544566
2064,1.7198046398046398
2065,1.6737484737484738
2066,1.7198046398046398
2067,1.7737240537240535
2068,1.7523809523809524
2069,1.722051282051282
2070,1.7714774114774114
2071,1.8355067155067155
2072,1.8287667887667889
2073,1.8107936507936508
2074,1.866959706959707
2075,1.922002442002442
2076,1.907399267399268
2077,1.893919413919414
2078,1.9534554334554333
2079,2.0264713064713065
2080,1.9882783882783883
2081,1.9545787545787543
2082,1.9815384615384608
2083,1.993894993894994
2084,1.9107692307692308
2085,1.8186568986568987
2086,1.8063003663003665
2087,1.800683760683761
2088,1.7366544566544566
2089,1.6445421245421246
2090,1.6636385836385836
2091,1.6804884004884004
2092,1.6231990231990232
2093,1.5692796092796093
2094,1.615335775335775
2095,1.6422954822954825
2096,1.6108424908424908
2097,1.5647863247863247
2098,1.6052258852258852
2099,1.6456654456654456
