Index,II
0,1.677118437118437
1,1.7231746031746031
2,1.704078144078144
3,1.6602686202686203
4,1.684981684981685
5,1.7478876678876678
6,1.7096947496947497
7,1.656898656898657
8,1.6894749694749696
9,1.738901098901099
10,1.711941391941392
11,1.6692551892551892
12,1.6962148962148962
13,1.7445177045177045
14,1.7209279609279609
15,1.665885225885226
16,1.7018315018315018
17,1.7647374847374848
18,1.7265445665445665
19,1.675995115995116
20,1.722051282051282
21,1.7703540903540904
22,1.7276678876678877
23,1.6827350427350427
24,1.6995848595848595
25,1.7535042735042734
26,1.737777777777778
27,1.678241758241758
28,1.7186813186813186
29,1.7602442002442005
30,1.74002442002442
31,1.6950915750915752
32,1.7209279609279609
33,1.7726007326007327
34,1.74002442002442
35,1.6995848595848595
36,1.7242979242979244
37,1.7872039072039072
38,1.7467643467643468
39,1.713064713064713
40,1.731037851037851
41,1.777094017094017
42,1.7456410256410255
43,1.711941391941392
44,1.7242979242979244
45,1.7726007326007327
46,1.7332844932844933
47,1.6995848595848595
48,1.7433943833943837
49,1.7726007326007327
50,1.7478876678876678
51,1.710818070818071
52,1.7321611721611725
53,1.783833943833944
54,1.7478876678876678
55,1.7231746031746031
56,1.738901098901099
57,1.7860805860805862
58,1.74002442002442
59,1.7175579975579975
60,1.7445177045177045
61,1.795067155067155
62,1.7478876678876678
63,1.713064713064713
64,1.7523809523809524
65,1.795067155067155
66,1.737777777777778
67,1.704078144078144
68,1.7512576312576311
69,1.7804639804639804
70,1.7478876678876678
71,1.711941391941392
72,1.75013431013431
73,1.7973137973137974
74,1.738901098901099
75,1.7063247863247863
76,1.7546275946275949
77,1.7827106227106226
78,1.7535042735042734
79,1.7085714285714286
80,1.7445177045177045
81,1.7905738705738703
82,1.738901098901099
83,1.7254212454212454
84,1.7602442002442005
85,1.81978021978022
86,1.7827106227106226
87,1.7647374847374848
88,1.8085470085470088
89,1.84
90,1.7984371184371184
91,1.7523809523809524
92,1.8051770451770448
93,1.827643467643468
94,1.7703540903540904
95,1.7242979242979244
96,1.7411477411477412
97,1.775970695970696
98,1.7456410256410255
99,1.7063247863247863
100,1.7546275946275949
101,1.7916971916971918
102,1.7321611721611725
103,1.7074481074481074
104,1.75013431013431
105,1.775970695970696
106,1.7422710622710622
107,1.6748717948717948
108,1.7422710622710622
109,1.893919413919414
110,2.168009768009768
111,2.633064713064713
112,3.088009768009768
113,3.2756043956043954
114,2.953211233211233
115,2.479169719169719
116,2.086007326007326
117,1.8883028083028084
118,1.7332844932844933
119,1.6681318681318682
120,1.6883516483516483
121,1.6984615384615385
122,1.6333089133089134
123,1.6063492063492064
124,1.6344322344322344
125,1.6625152625152626
126,1.6142124542124543
127,1.586129426129426
128,1.6333089133089134
129,1.6445421245421246
130,1.6074725274725274
131,1.5872527472527471
132,1.638925518925519
133,1.6703785103785105
134,1.6142124542124543
135,1.6007326007326008
136,1.6613919413919414
137,1.677118437118437
138,1.6434188034188033
139,1.6254456654456657
140,1.6647619047619049
141,1.6950915750915752
142,1.6557753357753358
143,1.6276923076923078
144,1.6872283272283273
145,1.710818070818071
146,1.6827350427350427
147,1.6557753357753358
148,1.705201465201465
149,1.7467643467643468
150,1.7063247863247863
151,1.678241758241758
152,1.737777777777778
153,1.7613675213675213
154,1.7254212454212454
155,1.6984615384615385
156,1.7737240537240535
157,1.7984371184371184
158,1.7782173382173383
159,1.7658608058608058
160,1.8343833943833945
161,1.875946275946276
162,1.8624664224664225
163,1.848986568986569
164,1.9186324786324789
165,1.9714285714285715
166,1.927619047619048
167,1.9287423687423688
168,1.966935286935287
169,1.9905250305250304
170,1.9309890109890109
171,1.8905494505494504
172,1.911892551892552
173,1.877069597069597
174,1.804053724053724
175,1.737777777777778
176,1.749010989010989
177,1.74002442002442
178,1.6524053724053724
179,1.6097191697191695
180,1.658021978021978
181,1.659145299145299
182,1.5872527472527471
183,1.567032967032967
184,1.6333089133089134
185,1.6434188034188033
186,1.5894993894993894
187,1.5793894993894997
188,1.6187057387057386
189,1.631062271062271
190,1.5883760683760684
191,1.5715262515262516
192,1.6243223443223442
193,1.6378021978021975
194,1.6052258852258852
195,1.5793894993894997
196,1.6512820512820512
197,1.6557753357753358
198,1.6007326007326008
199,1.5973626373626373
200,1.6411721611721612
201,1.6681318681318682
202,1.615335775335775
203,1.604102564102564
204,1.667008547008547
205,1.659145299145299
206,1.6097191697191695
207,1.6029792429792429
208,1.665885225885226
209,1.6636385836385836
210,1.61982905982906
211,1.6007326007326008
212,1.665885225885226
213,1.678241758241758
214,1.6265689865689863
215,1.6422954822954825
216,1.6827350427350427
217,1.704078144078144
218,1.6557753357753358
219,1.6434188034188033
220,1.6973382173382174
221,1.7085714285714286
222,1.64004884004884
223,1.6299389499389498
224,1.6905982905982906
225,1.7007081807081808
226,1.6411721611721612
227,1.658021978021978
228,1.7074481074481074
229,1.7141880341880342
230,1.659145299145299
231,1.636678876678877
232,1.6984615384615385
233,1.713064713064713
234,1.647912087912088
235,1.6524053724053724
236,1.704078144078144
237,1.722051282051282
238,1.665885225885226
239,1.647912087912088
240,1.7096947496947497
241,1.713064713064713
242,1.6613919413919414
243,1.6692551892551892
244,1.731037851037851
245,1.7231746031746031
246,1.678241758241758
247,1.6692551892551892
248,1.7242979242979244
249,1.737777777777778
250,1.686105006105006
251,1.6692551892551892
252,1.7445177045177045
253,1.74002442002442
254,1.6917216117216116
255,1.6894749694749696
256,1.7456410256410255
257,1.7557509157509157
258,1.6894749694749696
259,1.6984615384615385
260,1.757997557997558
261,1.7456410256410255
262,1.6917216117216116
263,1.6883516483516483
264,1.75013431013431
265,1.75013431013431
266,1.704078144078144
267,1.6894749694749696
268,1.749010989010989
269,1.7557509157509157
270,1.6995848595848595
271,1.7018315018315018
272,1.756874236874237
273,1.7523809523809524
274,1.7141880341880342
275,1.7007081807081808
276,1.7557509157509157
277,1.7658608058608058
278,1.7164346764346765
279,1.7063247863247863
280,1.777094017094017
281,1.7602442002442005
282,1.7096947496947497
283,1.7287912087912087
284,1.7703540903540904
285,1.775970695970696
286,1.7198046398046398
287,1.7175579975579975
288,1.7894505494505497
289,1.7726007326007327
290,1.7276678876678877
291,1.7355311355311356
292,1.7939438339438338
293,1.7905738705738703
294,1.7254212454212454
295,1.74002442002442
296,1.7939438339438338
297,1.777094017094017
298,1.7411477411477412
299,1.756874236874237
300,1.8242735042735043
301,1.8343833943833945
302,1.802930402930403
303,1.8063003663003665
304,1.848986568986569
305,1.831013431013431
306,1.7905738705738703
307,1.7916971916971918
308,1.84
309,1.8141636141636144
310,1.7254212454212454
311,1.7321611721611725
312,1.7872039072039072
313,1.783833943833944
314,1.711941391941392
315,1.7265445665445665
316,1.7827106227106226
317,1.7636141636141636
318,1.722051282051282
319,1.7366544566544566
320,1.795067155067155
321,1.7883272283272282
322,1.6928449328449329
323,1.7287912087912087
324,1.9658119658119653
325,2.341001221001221
326,2.7858363858363857
327,3.1745054945054947
328,3.291330891330891
329,2.913894993894994
330,2.3825641025641024
331,1.986031746031746
332,1.841123321123321
333,1.7636141636141636
334,1.6636385836385836
335,1.6726251526251523
336,1.705201465201465
337,1.6636385836385836
338,1.6142124542124543
339,1.6164590964590964
340,1.678241758241758
341,1.6411721611721612
342,1.5906227106227109
343,1.6085958485958487
344,1.6613919413919414
345,1.6546520146520147
346,1.6097191697191695
347,1.6175824175824176
348,1.684981684981685
349,1.665885225885226
350,1.6052258852258852
351,1.6434188034188033
352,1.6905982905982906
353,1.675995115995116
354,1.632185592185592
355,1.6512820512820512
356,1.711941391941392
357,1.6894749694749696
358,1.6467887667887668
359,1.659145299145299
360,1.7344078144078143
361,1.713064713064713
362,1.6636385836385836
363,1.6950915750915752
364,1.7456410256410255
365,1.7344078144078143
366,1.677118437118437
367,1.704078144078144
368,1.775970695970696
369,1.768107448107448
370,1.710818070818071
371,1.749010989010989
372,1.825396825396825
373,1.8085470085470088
374,1.775970695970696
375,1.822026862026862
376,1.8849328449328449
377,1.8804395604395605
378,1.8512332112332115
379,1.8927960927960927
380,1.9703052503052505
381,1.9747985347985348
382,1.9253724053724053
383,1.9568253968253968
384,2.0107448107448107
385,1.9613186813186807
386,1.8883028083028084
387,1.875946275946276
388,1.877069597069597
389,1.81978021978022
390,1.7186813186813186
391,1.7141880341880342
392,1.7445177045177045
393,1.6950915750915752
394,1.6074725274725274
395,1.6299389499389498
396,1.677118437118437
397,1.6422954822954825
398,1.5872527472527471
399,1.6108424908424908
400,1.6602686202686203
401,1.6333089133089134
402,1.5782661782661782
403,1.6085958485958487
404,1.6715018315018315
405,1.6344322344322344
406,1.5771428571428572
407,1.6097191697191695
408,1.6613919413919414
409,1.632185592185592
410,1.5951159951159952
411,1.6187057387057386
412,1.6804884004884004
413,1.656898656898657
414,1.5984859584859583
415,1.6344322344322344
416,1.6883516483516483
417,1.6501587301587302
418,1.6175824175824176
419,1.647912087912088
420,1.6894749694749696
421,1.6703785103785105
422,1.611965811965812
423,1.6422954822954825
424,1.702954822954823
425,1.6647619047619049
426,1.615335775335775
427,1.6456654456654456
428,1.704078144078144
429,1.678241758241758
430,1.6220757020757022
431,1.659145299145299
432,1.7209279609279609
433,1.6748717948717948
434,1.6411721611721612
435,1.678241758241758
436,1.713064713064713
437,1.683858363858364
438,1.632185592185592
439,1.6613919413919414
440,1.7242979242979244
441,1.6905982905982906
442,1.632185592185592
443,1.6737484737484738
444,1.7321611721611725
445,1.686105006105006
446,1.6411721611721612
447,1.6827350427350427
448,1.7276678876678877
449,1.7096947496947497
450,1.6535286935286937
451,1.683858363858364
452,1.7332844932844933
453,1.6995848595848595
454,1.6681318681318682
455,1.6894749694749696
456,1.7355311355311356
457,1.711941391941392
458,1.6703785103785105
459,1.702954822954823
460,1.756874236874237
461,1.702954822954823
462,1.677118437118437
463,1.7096947496947497
464,1.7523809523809524
465,1.7164346764346765
466,1.6703785103785105
467,1.722051282051282
468,1.7636141636141636
469,1.7141880341880342
470,1.6917216117216116
471,1.7164346764346765
472,1.7591208791208792
473,1.7141880341880342
474,1.693968253968254
475,1.7198046398046398
476,1.7591208791208792
477,1.7355311355311356
478,1.6816117216117217
479,1.7344078144078143
480,1.775970695970696
481,1.7242979242979244
482,1.6928449328449329
483,1.7422710622710622
484,1.777094017094017
485,1.7231746031746031
486,1.6995848595848595
487,1.737777777777778
488,1.768107448107448
489,1.738901098901099
490,1.7063247863247863
491,1.7445177045177045
492,1.7860805860805862
493,1.7321611721611725
494,1.6995848595848595
495,1.756874236874237
496,1.795067155067155
497,1.74002442002442
498,1.710818070818071
499,1.7669841269841269
500,1.7894505494505497
501,1.75013431013431
502,1.7186813186813186
503,1.7624908424908423
504,1.7984371184371184
505,1.7456410256410255
506,1.7141880341880342
507,1.7726007326007327
508,1.783833943833944
509,1.75013431013431
510,1.7242979242979244
511,1.7669841269841269
512,1.8096703296703296
513,1.7737240537240535
514,1.7546275946275949
515,1.8074236874236875
516,1.8703296703296703
517,1.827643467643468
518,1.813040293040293
519,1.8624664224664225
520,1.8725763125763129
521,1.8164102564102564
522,1.8063003663003665
523,1.8388766788766788
524,1.842246642246642
525,1.7658608058608058
526,1.731037851037851
527,1.784957264957265
528,1.804053724053724
529,1.7411477411477412
530,1.7366544566544566
531,1.784957264957265
532,1.800683760683761
533,1.7332844932844933
534,1.7344078144078143
535,1.7905738705738703
536,1.811916971916972
537,1.722051282051282
538,1.7512576312576311
539,1.993894993894994
540,2.375824175824176
541,2.813919413919414
542,3.1801221001221003
543,3.3003174603174603
544,2.9824175824175825
545,2.4477167277167275
546,2.0096214896214897
547,1.85010989010989
548,1.7815873015873016
549,1.683858363858364
550,1.6625152625152626
551,1.6872283272283273
552,1.6804884004884004
553,1.6220757020757022
554,1.592869352869353
555,1.6535286935286937
556,1.647912087912088
557,1.5951159951159952
558,1.5827594627594628
559,1.6411721611721612
560,1.6647619047619049
561,1.5962393162393165
562,1.5973626373626373
563,1.6613919413919414
564,1.6748717948717948
565,1.6231990231990232
566,1.6231990231990232
567,1.6692551892551892
568,1.684981684981685
569,1.6422954822954825
570,1.636678876678877
571,1.6905982905982906
572,1.7074481074481074
573,1.6422954822954825
574,1.6445421245421246
575,1.7096947496947497
576,1.711941391941392
577,1.6625152625152626
578,1.6737484737484738
579,1.7321611721611725
580,1.74002442002442
581,1.6816117216117217
582,1.702954822954823
583,1.7703540903540904
584,1.7692307692307692
585,1.7276678876678877
586,1.7523809523809524
587,1.8175335775335768
588,1.827643467643468
589,1.7872039072039072
590,1.8096703296703296
591,1.8984126984126983
592,1.914139194139194
593,1.8613431013431008
594,1.8826862026862028
595,1.966935286935287
596,1.9882783882783883
597,1.9455921855921856
598,1.963565323565324
599,2.0242246642246644
600,1.989401709401709
601,1.9017826617826616
602,1.8624664224664225
603,1.881562881562881
604,1.8242735042735043
605,1.7366544566544566
606,1.710818070818071
607,1.7366544566544566
608,1.7096947496947497
609,1.6501587301587302
610,1.6378021978021975
611,1.6726251526251523
612,1.6636385836385836
613,1.6074725274725274
614,1.592869352869353
615,1.6512820512820512
616,1.647912087912088
617,1.5973626373626373
618,1.5996092796092796
619,1.6512820512820512
620,1.6546520146520147
621,1.6007326007326008
622,1.6063492063492064
623,1.667008547008547
624,1.6613919413919414
625,1.6108424908424908
626,1.615335775335775
627,1.6737484737484738
628,1.6636385836385836
629,1.6085958485958487
630,1.632185592185592
631,1.6737484737484738
632,1.6636385836385836
633,1.6220757020757022
634,1.6254456654456657
635,1.6995848595848595
636,1.6905982905982906
637,1.6276923076923078
638,1.6434188034188033
639,1.7186813186813186
640,1.6917216117216116
641,1.638925518925519
642,1.6602686202686203
643,1.7018315018315018
644,1.6905982905982906
645,1.6535286935286937
646,1.6625152625152626
647,1.7141880341880342
648,1.7063247863247863
649,1.6456654456654456
650,1.6726251526251523
651,1.7411477411477412
652,1.7287912087912087
653,1.6737484737484738
654,1.683858363858364
655,1.7411477411477412
656,1.737777777777778
657,1.6917216117216116
658,1.7164346764346765
659,1.800683760683761
660,1.7939438339438338
661,1.7422710622710622
662,1.7624908424908423
663,1.8018070818070813
664,1.731037851037851
665,1.647912087912088
666,1.675995115995116
667,1.72991452991453
668,1.722051282051282
669,1.6793650793650794
670,1.683858363858364
671,1.7445177045177045
672,1.713064713064713
673,1.656898656898657
674,1.677118437118437
675,1.7456410256410255
676,1.713064713064713
677,1.6647619047619049
678,1.693968253968254
679,1.7669841269841269
680,1.7198046398046398
681,1.638925518925519
682,1.738901098901099
683,2.0444444444444443
684,2.463443223443224
685,2.899291819291819
686,3.1767521367521367
687,3.07003663003663
688,2.631941391941392
689,2.125323565323565
690,1.857973137973138
691,1.7905738705738703
692,1.710818070818071
693,1.6445421245421246
694,1.6467887667887668
695,1.665885225885226
696,1.638925518925519
697,1.5805128205128205
698,1.5962393162393165
699,1.6501587301587302
700,1.6299389499389498
701,1.5704029304029303
702,1.6018559218559218
703,1.6726251526251523
704,1.632185592185592
705,1.574896214896215
706,1.6164590964590964
707,1.667008547008547
708,1.659145299145299
709,1.6220757020757022
710,1.6344322344322344
711,1.6827350427350427
712,1.6546520146520147
713,1.6175824175824176
714,1.6625152625152626
715,1.710818070818071
716,1.693968253968254
717,1.647912087912088
718,1.6883516483516483
719,1.7321611721611725
720,1.7175579975579975
721,1.6737484737484738
722,1.704078144078144
723,1.7669841269841269
724,1.737777777777778
725,1.6883516483516483
726,1.74002442002442
727,1.8152869352869352
728,1.7872039072039072
729,1.7703540903540904
730,1.8141636141636144
731,1.8849328449328449
732,1.886056166056166
733,1.8590964590964592
734,1.8972893772893773
735,1.9658119658119653
736,1.964688644688645
737,1.9343589743589744
738,1.977045177045177
739,2.041074481074481
740,1.9882783882783883
741,1.9264957264957263
742,1.9332356532356527
743,1.932112332112332
744,1.8613431013431008
745,1.7647374847374848
746,1.768107448107448
747,1.7669841269841269
748,1.6928449328449329
749,1.632185592185592
750,1.631062271062271
751,1.6737484737484738
752,1.6333089133089134
753,1.5816361416361415
754,1.613089133089133
755,1.6613919413919414
756,1.6052258852258852
757,1.5726495726495726
758,1.6052258852258852
759,1.6546520146520147
760,1.6142124542124543
761,1.574896214896215
762,1.6164590964590964
763,1.6546520146520147
764,1.6276923076923078
765,1.586129426129426
766,1.6299389499389498
767,1.656898656898657
768,1.6276923076923078
769,1.5894993894993894
770,1.6175824175824176
771,1.6726251526251523
772,1.6445421245421246
773,1.5951159951159952
774,1.6378021978021975
775,1.677118437118437
776,1.64004884004884
777,1.6108424908424908
778,1.659145299145299
779,1.693968253968254
780,1.6501587301587302
781,1.611965811965812
782,1.64004884004884
783,1.6928449328449329
784,1.6793650793650794
785,1.6344322344322344
786,1.6692551892551892
787,1.7096947496947497
788,1.6883516483516483
789,1.6411721611721612
790,1.6827350427350427
791,1.7321611721611725
792,1.6816117216117217
793,1.632185592185592
794,1.686105006105006
795,1.7186813186813186
796,1.6816117216117217
797,1.659145299145299
798,1.6883516483516483
799,1.7209279609279609
800,1.6816117216117217
801,1.647912087912088
802,1.6973382173382174
803,1.737777777777778
804,1.686105006105006
805,1.659145299145299
806,1.705201465201465
807,1.731037851037851
808,1.7007081807081808
809,1.6737484737484738
810,1.7141880341880342
811,1.7535042735042734
812,1.6973382173382174
813,1.6726251526251523
814,1.710818070818071
815,1.7422710622710622
816,1.7096947496947497
817,1.6827350427350427
818,1.7254212454212454
819,1.749010989010989
820,1.7175579975579975
821,1.693968253968254
822,1.7366544566544566
823,1.7703540903540904
824,1.722051282051282
825,1.6950915750915752
826,1.7546275946275949
827,1.768107448107448
828,1.7186813186813186
829,1.6984615384615385
830,1.7411477411477412
831,1.7692307692307692
832,1.7265445665445665
833,1.713064713064713
834,1.768107448107448
835,1.768107448107448
836,1.7265445665445665
837,1.7063247863247863
838,1.7591208791208792
839,1.775970695970696
840,1.7344078144078143
841,1.713064713064713
842,1.775970695970696
843,1.7860805860805862
844,1.737777777777778
845,1.7198046398046398
846,1.7703540903540904
847,1.7905738705738703
848,1.7344078144078143
849,1.7231746031746031
850,1.779340659340659
851,1.7883272283272282
852,1.7456410256410255
853,1.7321611721611725
854,1.7827106227106226
855,1.7939438339438338
856,1.7456410256410255
857,1.7433943833943837
858,1.7804639804639804
859,1.7973137973137974
860,1.7422710622710622
861,1.737777777777778
862,1.804053724053724
863,1.7973137973137974
864,1.7456410256410255
865,1.7411477411477412
866,1.7939438339438338
867,1.7973137973137974
868,1.7535042735042734
869,1.738901098901099
870,1.795067155067155
871,1.813040293040293
872,1.7456410256410255
873,1.749010989010989
874,1.7984371184371184
875,1.8051770451770448
876,1.749010989010989
877,1.7433943833943837
878,1.804053724053724
879,1.804053724053724
880,1.7613675213675213
881,1.7523809523809524
882,1.802930402930403
883,1.8051770451770448
884,1.756874236874237
885,1.7546275946275949
886,1.8018070818070813
887,1.813040293040293
888,1.7523809523809524
889,1.7478876678876678
890,1.8175335775335768
891,1.8141636141636144
892,1.7512576312576311
893,1.749010989010989
894,1.7995604395604397
895,1.8063003663003665
896,1.75013431013431
897,1.7602442002442005
898,1.8355067155067155
899,1.82989010989011
900,1.7872039072039072
901,1.822026862026862
902,1.913015873015873
903,1.920879120879121
904,1.8456166056166057
905,1.8568498168498169
906,1.9006593406593408
907,1.8826862026862028
908,1.822026862026862
909,1.7995604395604397
910,1.832136752136752
911,1.81978021978022
912,1.7546275946275949
913,1.7478876678876678
914,1.822026862026862
915,1.7984371184371184
916,1.7287912087912087
917,1.7478876678876678
918,1.7860805860805862
919,1.7827106227106226
920,1.7456410256410255
921,1.72991452991453
922,1.7894505494505497
923,1.8647130647130647
924,2.1006105006105007
925,2.58026862026862
926,3.1138461538461537
927,3.331770451770452
928,3.117216117216117
929,2.671257631257632
930,2.230915750915751
931,1.920879120879121
932,1.722051282051282
933,1.6894749694749696
934,1.7254212454212454
935,1.6816117216117217
936,1.6097191697191695
937,1.6097191697191695
938,1.6613919413919414
939,1.6456654456654456
940,1.573772893772894
941,1.593992673992674
942,1.6512820512820512
943,1.6411721611721612
944,1.585006105006105
945,1.6074725274725274
946,1.6535286935286937
947,1.6467887667887668
948,1.5883760683760684
949,1.6052258852258852
950,1.6827350427350427
951,1.6512820512820512
952,1.6007326007326008
953,1.6299389499389498
954,1.6748717948717948
955,1.6737484737484738
956,1.6175824175824176
957,1.6445421245421246
958,1.693968253968254
959,1.6917216117216116
960,1.632185592185592
961,1.6625152625152626
962,1.7141880341880342
963,1.6995848595848595
964,1.667008547008547
965,1.6872283272283273
966,1.738901098901099
967,1.737777777777778
968,1.6950915750915752
969,1.7254212454212454
970,1.7815873015873016
971,1.7748473748473748
972,1.731037851037851
973,1.757997557997558
974,1.8456166056166057
975,1.8355067155067155
976,1.7984371184371184
977,1.8366300366300363
978,1.914139194139194
979,1.9309890109890109
980,1.87931623931624
981,1.9163858363858364
982,2.006251526251526
983,1.987155067155067
984,1.9231257631257632
985,1.9388522588522588
986,1.955702075702076
987,1.907399267399268
988,1.823150183150183
989,1.7894505494505497
990,1.823150183150183
991,1.7669841269841269
992,1.6737484737484738
993,1.6793650793650794
994,1.7209279609279609
995,1.677118437118437
996,1.6220757020757022
997,1.6422954822954825
998,1.6748717948717948
999,1.6535286935286937
1000,1.5894993894993894
1001,1.61982905982906
1002,1.6793650793650794
1003,1.6546520146520147
1004,1.5917460317460317
1005,1.611965811965812
1006,1.6816117216117217
1007,1.656898656898657
1008,1.5996092796092796
1009,1.611965811965812
1010,1.6804884004884004
1011,1.6535286935286937
1012,1.5984859584859583
1013,1.631062271062271
1014,1.686105006105006
1015,1.665885225885226
1016,1.6175824175824176
1017,1.6344322344322344
1018,1.702954822954823
1019,1.677118437118437
1020,1.6231990231990232
1021,1.636678876678877
1022,1.7007081807081808
1023,1.6793650793650794
1024,1.6164590964590964
1025,1.659145299145299
1026,1.7074481074481074
1027,1.677118437118437
1028,1.6254456654456657
1029,1.6726251526251523
1030,1.7254212454212454
1031,1.686105006105006
1032,1.64004884004884
1033,1.6726251526251523
1034,1.710818070818071
1035,1.7007081807081808
1036,1.6445421245421246
1037,1.665885225885226
1038,1.7209279609279609
1039,1.7018315018315018
1040,1.636678876678877
1041,1.675995115995116
1042,1.7242979242979244
1043,1.705201465201465
1044,1.6557753357753358
1045,1.677118437118437
1046,1.7411477411477412
1047,1.704078144078144
1048,1.6512820512820512
1049,1.693968253968254
1050,1.74002442002442
1051,1.704078144078144
1052,1.665885225885226
1053,1.6827350427350427
1054,1.7344078144078143
1055,1.7209279609279609
1056,1.6737484737484738
1057,1.6950915750915752
1058,1.7445177045177045
1059,1.72991452991453
1060,1.675995115995116
1061,1.704078144078144
1062,1.7512576312576311
1063,1.7242979242979244
1064,1.6793650793650794
1065,1.7186813186813186
1066,1.7557509157509157
1067,1.7355311355311356
1068,1.6872283272283273
1069,1.7186813186813186
1070,1.7748473748473748
1071,1.7265445665445665
1072,1.686105006105006
1073,1.7287912087912087
1074,1.7636141636141636
1075,1.7355311355311356
1076,1.7018315018315018
1077,1.7366544566544566
1078,1.779340659340659
1079,1.7445177045177045
1080,1.6905982905982906
1081,1.7366544566544566
1082,1.7726007326007327
1083,1.7321611721611725
1084,1.704078144078144
1085,1.7411477411477412
1086,1.7860805860805862
1087,1.7546275946275949
1088,1.7018315018315018
1089,1.749010989010989
1090,1.7872039072039072
1091,1.7411477411477412
1092,1.7175579975579975
1093,1.7456410256410255
1094,1.784957264957265
1095,1.7557509157509157
1096,1.7063247863247863
1097,1.7535042735042734
1098,1.7916971916971918
1099,1.7523809523809524
1100,1.722051282051282
1101,1.7512576312576311
1102,1.7872039072039072
1103,1.7456410256410255
1104,1.722051282051282
1105,1.749010989010989
1106,1.804053724053724
1107,1.749010989010989
1108,1.722051282051282
1109,1.749010989010989
1110,1.802930402930403
1111,1.7624908424908423
1112,1.7287912087912087
1113,1.7692307692307692
1114,1.8085470085470088
1115,1.768107448107448
1116,1.7321611721611725
1117,1.7624908424908423
1118,1.8096703296703296
1119,1.7591208791208792
1120,1.7411477411477412
1121,1.7636141636141636
1122,1.8152869352869352
1123,1.7624908424908423
1124,1.7344078144078143
1125,1.800683760683761
1126,1.8287667887667889
1127,1.8141636141636144
1128,1.7916971916971918
1129,1.8444932844932844
1130,1.877069597069597
1131,1.832136752136752
1132,1.7782173382173383
1133,1.820903540903541
1134,1.8444932844932844
1135,1.795067155067155
1136,1.7321611721611725
1137,1.757997557997558
1138,1.804053724053724
1139,1.749010989010989
1140,1.731037851037851
1141,1.7557509157509157
1142,1.802930402930403
1143,1.7411477411477412
1144,1.7231746031746031
1145,1.7546275946275949
1146,1.7939438339438338
1147,1.7535042735042734
1148,1.722051282051282
1149,1.738901098901099
1150,1.8456166056166057
1151,2.034334554334554
1152,2.4376068376068374
1153,2.9655677655677657
1154,3.3126739926739925
1155,3.183492063492064
1156,2.7442735042735045
1157,2.293821733821734
1158,1.9658119658119653
1159,1.7860805860805862
1160,1.6793650793650794
1161,1.704078144078144
1162,1.704078144078144
1163,1.6456654456654456
1164,1.592869352869353
1165,1.6378021978021975
1166,1.6535286935286937
1167,1.6108424908424908
1168,1.574896214896215
1169,1.6276923076923078
1170,1.6501587301587302
1171,1.61982905982906
1172,1.5838827838827838
1173,1.632185592185592
1174,1.6512820512820512
1175,1.611965811965812
1176,1.593992673992674
1177,1.6535286935286937
1178,1.667008547008547
1179,1.620952380952381
1180,1.6029792429792429
1181,1.6490354090354091
1182,1.6748717948717948
1183,1.631062271062271
1184,1.6074725274725274
1185,1.6692551892551892
1186,1.684981684981685
1187,1.647912087912088
1188,1.647912087912088
1189,1.7074481074481074
1190,1.722051282051282
1191,1.6816117216117217
1192,1.6535286935286937
1193,1.7186813186813186
1194,1.7467643467643468
1195,1.7074481074481074
1196,1.6950915750915752
1197,1.7546275946275949
1198,1.7905738705738703
1199,1.7591208791208792
1200,1.7669841269841269
1201,1.823150183150183
1202,1.855726495726496
1203,1.84
1204,1.832136752136752
1205,1.920879120879121
1206,1.9377289377289373
1207,1.9085225885225885
1208,1.9006593406593408
1209,1.9792918192918192
1210,1.995018315018315
1211,1.927619047619048
1212,1.9107692307692308
1213,1.9298656898656896
1214,1.902905982905983
1215,1.795067155067155
1216,1.7456410256410255
1217,1.7591208791208792
1218,1.7332844932844933
1219,1.6681318681318682
1220,1.6243223443223442
1221,1.6737484737484738
1222,1.6501587301587302
1223,1.5917460317460317
1224,1.568156288156288
1225,1.6288156288156288
1226,1.6276923076923078
1227,1.5973626373626373
1228,1.5715262515262516
1229,1.632185592185592
1230,1.64004884004884
1231,1.5872527472527471
1232,1.5692796092796093
1233,1.6276923076923078
1234,1.631062271062271
1235,1.593992673992674
1236,1.5827594627594628
1237,1.6445421245421246
1238,1.638925518925519
1239,1.5917460317460317
1240,1.574896214896215
1241,1.6434188034188033
1242,1.6456654456654456
1243,1.592869352869353
1244,1.5962393162393165
1245,1.647912087912088
1246,1.656898656898657
1247,1.5996092796092796
1248,1.611965811965812
1249,1.6692551892551892
1250,1.659145299145299
1251,1.615335775335775
1252,1.611965811965812
1253,1.667008547008547
1254,1.675995115995116
1255,1.6164590964590964
1256,1.631062271062271
1257,1.6872283272283273
1258,1.6681318681318682
1259,1.6288156288156288
1260,1.632185592185592
1261,1.6950915750915752
1262,1.678241758241758
1263,1.6344322344322344
1264,1.6333089133089134
1265,1.6917216117216116
1266,1.702954822954823
1267,1.6467887667887668
1268,1.6501587301587302
1269,1.6962148962148962
1270,1.683858363858364
1271,1.6456654456654456
1272,1.64004884004884
1273,1.7085714285714286
1274,1.711941391941392
1275,1.6636385836385836
1276,1.6524053724053724
1277,1.713064713064713
1278,1.7242979242979244
1279,1.6512820512820512
1280,1.6715018315018315
1281,1.7276678876678877
1282,1.7085714285714286
1283,1.6625152625152626
1284,1.659145299145299
1285,1.7153113553113553
1286,1.7276678876678877
1287,1.6692551892551892
1288,1.683858363858364
1289,1.7321611721611725
1290,1.7254212454212454
1291,1.6804884004884004
1292,1.6816117216117217
1293,1.749010989010989
1294,1.74002442002442
1295,1.6715018315018315
1296,1.6950915750915752
1297,1.7535042735042734
1298,1.7411477411477412
1299,1.6827350427350427
1300,1.7085714285714286
1301,1.7478876678876678
1302,1.737777777777778
1303,1.6872283272283273
1304,1.704078144078144
1305,1.7591208791208792
1306,1.75013431013431
1307,1.678241758241758
1308,1.6894749694749696
1309,1.7557509157509157
1310,1.7321611721611725
1311,1.675995115995116
1312,1.6928449328449329
1313,1.7602442002442005
1314,1.7602442002442005
1315,1.7018315018315018
1316,1.7231746031746031
1317,1.784957264957265
1318,1.775970695970696
1319,1.7063247863247863
1320,1.7164346764346765
1321,1.7804639804639804
1322,1.757997557997558
1323,1.702954822954823
1324,1.7198046398046398
1325,1.784957264957265
1326,1.7669841269841269
1327,1.705201465201465
1328,1.731037851037851
1329,1.796190476190476
1330,1.7658608058608058
1331,1.7231746031746031
1332,1.7332844932844933
1333,1.8018070818070813
1334,1.7726007326007327
1335,1.713064713064713
1336,1.74002442002442
1337,1.7905738705738703
1338,1.777094017094017
1339,1.713064713064713
1340,1.7422710622710622
1341,1.8152869352869352
1342,1.7995604395604397
1343,1.7658608058608058
1344,1.8063003663003665
1345,1.869206349206349
1346,1.847863247863248
1347,1.7804639804639804
1348,1.775970695970696
1349,1.8343833943833945
1350,1.8018070818070813
1351,1.731037851037851
1352,1.7355311355311356
1353,1.7782173382173383
1354,1.7737240537240535
1355,1.713064713064713
1356,1.7478876678876678
1357,1.7939438339438338
1358,1.7636141636141636
1359,1.7164346764346765
1360,1.7231746031746031
1361,1.768107448107448
1362,1.7557509157509157
1363,1.7007081807081808
1364,1.6827350427350427
1365,1.7411477411477412
1366,1.866959706959707
1367,2.1421733821733824
1368,2.688107448107448
1369,3.1565323565323564
1370,3.243028083028083
1371,2.867838827838828
1372,2.4207570207570206
1373,2.0803907203907204
1374,1.8332600732600728
1375,1.710818070818071
1376,1.7186813186813186
1377,1.74002442002442
1378,1.6928449328449329
1379,1.6355555555555557
1380,1.6355555555555557
1381,1.6894749694749696
1382,1.665885225885226
1383,1.6029792429792429
1384,1.631062271062271
1385,1.683858363858364
1386,1.6726251526251523
1387,1.6052258852258852
1388,1.6411721611721612
1389,1.6973382173382174
1390,1.6692551892551892
1391,1.636678876678877
1392,1.6557753357753358
1393,1.7074481074481074
1394,1.6917216117216116
1395,1.647912087912088
1396,1.677118437118437
1397,1.7254212454212454
1398,1.693968253968254
1399,1.6445421245421246
1400,1.6816117216117217
1401,1.75013431013431
1402,1.711941391941392
1403,1.6872283272283273
1404,1.7007081807081808
1405,1.756874236874237
1406,1.7445177045177045
1407,1.6917216117216116
1408,1.7422710622710622
1409,1.7860805860805862
1410,1.7669841269841269
1411,1.7422710622710622
1412,1.777094017094017
1413,1.8456166056166057
1414,1.8265201465201464
1415,1.784957264957265
1416,1.843369963369964
1417,1.9163858363858364
1418,1.9062759462759464
1419,1.866959706959707
1420,1.9287423687423688
1421,1.9882783882783883
1422,1.9703052503052505
1423,1.952332112332112
1424,1.987155067155067
1425,2.0365811965811966
1426,2.0141147741147742
1427,1.9467155067155064
1428,1.9444688644688648
1429,1.9624420024420024
1430,1.877069597069597
1431,1.7894505494505497
1432,1.7827106227106226
1433,1.7928205128205128
1434,1.72991452991453
1435,1.6467887667887668
1436,1.6625152625152626
1437,1.693968253968254
1438,1.6546520146520147
1439,1.6018559218559218
1440,1.6220757020757022
1441,1.675995115995116
1442,1.6411721611721612
1443,1.5872527472527471
1444,1.6243223443223442
1445,1.6636385836385836
1446,1.6355555555555557
1447,1.593992673992674
1448,1.6265689865689863
1449,1.6692551892551892
1450,1.6445421245421246
1451,1.5951159951159952
1452,1.632185592185592
1453,1.6905982905982906
1454,1.6456654456654456
1455,1.6085958485958487
1456,1.6613919413919414
1457,1.6894749694749696
1458,1.6602686202686203
1459,1.6265689865689863
1460,1.665885225885226
1461,1.6995848595848595
1462,1.6793650793650794
1463,1.6333089133089134
1464,1.6703785103785105
1465,1.7153113553113553
1466,1.6726251526251523
1467,1.6456654456654456
1468,1.6726251526251523
1469,1.7164346764346765
1470,1.6793650793650794
1471,1.6557753357753358
1472,1.693968253968254
1473,1.7265445665445665
1474,1.6995848595848595
1475,1.6445421245421246
1476,1.6995848595848595
1477,1.7242979242979244
1478,1.6872283272283273
1479,1.6557753357753358
1480,1.7007081807081808
1481,1.72991452991453
1482,1.7063247863247863
1483,1.656898656898657
1484,1.7074481074481074
1485,1.7478876678876678
1486,1.6928449328449329
1487,1.6748717948717948
1488,1.7153113553113553
1489,1.737777777777778
1490,1.6984615384615385
1491,1.6625152625152626
1492,1.7096947496947497
1493,1.749010989010989
1494,1.7085714285714286
1495,1.6681318681318682
1496,1.7175579975579975
1497,1.7433943833943837
1498,1.7209279609279609
1499,1.6726251526251523
1500,1.7164346764346765
1501,1.749010989010989
1502,1.705201465201465
1503,1.6894749694749696
1504,1.731037851037851
1505,1.7624908424908423
1506,1.72991452991453
1507,1.6872283272283273
1508,1.7411477411477412
1509,1.7658608058608058
1510,1.7209279609279609
1511,1.6995848595848595
1512,1.731037851037851
1513,1.7613675213675213
1514,1.731037851037851
1515,1.7007081807081808
1516,1.7355311355311356
1517,1.7804639804639804
1518,1.737777777777778
1519,1.6962148962148962
1520,1.7512576312576311
1521,1.7815873015873016
1522,1.722051282051282
1523,1.7063247863247863
1524,1.74002442002442
1525,1.7827106227106226
1526,1.7366544566544566
1527,1.6973382173382174
1528,1.7512576312576311
1529,1.7737240537240535
1530,1.7344078144078143
1531,1.7186813186813186
1532,1.7467643467643468
1533,1.7804639804639804
1534,1.72991452991453
1535,1.710818070818071
1536,1.749010989010989
1537,1.7692307692307692
1538,1.7265445665445665
1539,1.7153113553113553
1540,1.7647374847374848
1541,1.784957264957265
1542,1.738901098901099
1543,1.711941391941392
1544,1.7613675213675213
1545,1.784957264957265
1546,1.7254212454212454
1547,1.722051282051282
1548,1.7726007326007327
1549,1.7872039072039072
1550,1.737777777777778
1551,1.722051282051282
1552,1.7894505494505497
1553,1.8074236874236875
1554,1.7669841269841269
1555,1.7535042735042734
1556,1.8265201465201464
1557,1.8725763125763129
1558,1.8186568986568987
1559,1.7905738705738703
1560,1.843369963369964
1561,1.8366300366300363
1562,1.7984371184371184
1563,1.7860805860805862
1564,1.8051770451770448
1565,1.8096703296703296
1566,1.7276678876678877
1567,1.7287912087912087
1568,1.7737240537240535
1569,1.7916971916971918
1570,1.7242979242979244
1571,1.7209279609279609
1572,1.7872039072039072
1573,1.7692307692307692
1574,1.72991452991453
1575,1.7332844932844933
1576,1.7782173382173383
1577,1.7726007326007327
1578,1.7535042735042734
1579,1.952332112332112
1580,2.4005372405372407
1581,2.894798534798535
1582,3.2374114774114773
1583,3.2868376068376066
1584,3.0003907203907203
1585,2.4701831501831504
1586,2.0006349206349205
1587,1.7827106227106226
1588,1.7624908424908423
1589,1.731037851037851
1590,1.6456654456654456
1591,1.6243223443223442
1592,1.6748717948717948
1593,1.6445421245421246
1594,1.5872527472527471
1595,1.5872527472527471
1596,1.6445421245421246
1597,1.6490354090354091
1598,1.5782661782661782
1599,1.5872527472527471
1600,1.6422954822954825
1601,1.6467887667887668
1602,1.5816361416361415
1603,1.5996092796092796
1604,1.647912087912088
1605,1.647912087912088
1606,1.6063492063492064
1607,1.6018559218559218
1608,1.677118437118437
1609,1.6636385836385836
1610,1.6187057387057386
1611,1.6187057387057386
1612,1.683858363858364
1613,1.6827350427350427
1614,1.6355555555555557
1615,1.6524053724053724
1616,1.7018315018315018
1617,1.713064713064713
1618,1.6490354090354091
1619,1.6625152625152626
1620,1.7344078144078143
1621,1.7231746031746031
1622,1.6872283272283273
1623,1.686105006105006
1624,1.7692307692307692
1625,1.7624908424908423
1626,1.7186813186813186
1627,1.7535042735042734
1628,1.8141636141636144
1629,1.8355067155067155
1630,1.779340659340659
1631,1.822026862026862
1632,1.893919413919414
1633,1.9107692307692308
1634,1.877069597069597
1635,1.9062759462759464
1636,1.9792918192918192
1637,1.986031746031746
1638,1.9433455433455435
1639,1.9500854700854704
1640,1.995018315018315
1641,1.9444688644688648
1642,1.8635897435897435
1643,1.8242735042735043
1644,1.848986568986569
1645,1.7883272283272282
1646,1.7018315018315018
1647,1.683858363858364
1648,1.7198046398046398
1649,1.6905982905982906
1650,1.611965811965812
1651,1.6074725274725274
1652,1.6636385836385836
1653,1.6411721611721612
1654,1.5883760683760684
1655,1.5951159951159952
1656,1.6625152625152626
1657,1.6434188034188033
1658,1.5917460317460317
1659,1.6063492063492064
1660,1.6726251526251523
1661,1.6524053724053724
1662,1.611965811965812
1663,1.6097191697191695
1664,1.675995115995116
1665,1.6557753357753358
1666,1.5973626373626373
1667,1.6142124542124543
1668,1.6681318681318682
1669,1.6613919413919414
1670,1.5973626373626373
1671,1.61982905982906
1672,1.684981684981685
1673,1.6692551892551892
1674,1.6276923076923078
1675,1.6434188034188033
1676,1.722051282051282
1677,1.7085714285714286
1678,1.6512820512820512
1679,1.6950915750915752
1680,1.756874236874237
1681,1.7591208791208792
1682,1.6962148962148962
1683,1.7153113553113553
1684,1.7445177045177045
1685,1.6995848595848595
1686,1.6276923076923078
1687,1.658021978021978
1688,1.7141880341880342
1689,1.6995848595848595
1690,1.6422954822954825
1691,1.6625152625152626
1692,1.704078144078144
1693,1.6804884004884004
1694,1.632185592185592
1695,1.6490354090354091
1696,1.7153113553113553
1697,1.684981684981685
1698,1.6467887667887668
1699,1.6625152625152626
1700,1.74002442002442
1701,1.6950915750915752
1702,1.6378021978021975
1703,1.768107448107448
1704,2.120830280830281
1705,2.5510622710622712
1706,2.9464713064713064
1707,3.185738705738706
1708,3.0621733821733823
1709,2.583638583638584
1710,2.047814407814408
1711,1.8074236874236875
1712,1.7445177045177045
1713,1.6715018315018315
1714,1.5951159951159952
1715,1.6085958485958487
1716,1.6378021978021975
1717,1.593992673992674
1718,1.5445665445665446
1719,1.576019536019536
1720,1.6097191697191695
1721,1.5872527472527471
1722,1.546813186813187
1723,1.567032967032967
1724,1.6187057387057386
1725,1.5782661782661782
1726,1.5524297924297925
1727,1.5816361416361415
1728,1.638925518925519
1729,1.6052258852258852
1730,1.5602930402930404
1731,1.6097191697191695
1732,1.6456654456654456
1733,1.631062271062271
1734,1.5805128205128205
1735,1.6378021978021975
1736,1.667008547008547
1737,1.6467887667887668
1738,1.6074725274725274
1739,1.6546520146520147
1740,1.704078144078144
1741,1.6715018315018315
1742,1.6524053724053724
1743,1.6883516483516483
1744,1.7231746031746031
1745,1.7141880341880342
1746,1.677118437118437
1747,1.74002442002442
1748,1.7905738705738703
1749,1.7692307692307692
1750,1.74002442002442
1751,1.796190476190476
1752,1.855726495726496
1753,1.8388766788766788
1754,1.8242735042735043
1755,1.891672771672772
1756,1.947838827838828
1757,1.9422222222222223
1758,1.9051526251526247
1759,1.9613186813186807
1760,1.9882783882783883
1761,1.9467155067155064
1762,1.8703296703296703
1763,1.8871794871794871
1764,1.8658363858363856
1765,1.783833943833944
1766,1.6872283272283273
1767,1.6950915750915752
1768,1.6995848595848595
1769,1.6456654456654456
1770,1.592869352869353
1771,1.613089133089133
1772,1.631062271062271
1773,1.5996092796092796
1774,1.5445665445665446
1775,1.5951159951159952
1776,1.6142124542124543
1777,1.5883760683760684
1778,1.549059829059829
1779,1.593992673992674
1780,1.6411721611721612
1781,1.5917460317460317
1782,1.5647863247863247
1783,1.586129426129426
1784,1.6333089133089134
1785,1.5872527472527471
1786,1.5557997557997558
1787,1.611965811965812
1788,1.638925518925519
1789,1.611965811965812
1790,1.568156288156288
1791,1.6276923076923078
1792,1.6535286935286937
1793,1.6175824175824176
1794,1.5962393162393165
1795,1.6434188034188033
1796,1.667008547008547
1797,1.6231990231990232
1798,1.5917460317460317
1799,1.6467887667887668
1800,1.6793650793650794
1801,1.6378021978021975
1802,1.6164590964590964
1803,1.659145299145299
1804,1.6883516483516483
1805,1.631062271062271
1806,1.6052258852258852
1807,1.665885225885226
1808,1.6894749694749696
1809,1.6445421245421246
1810,1.6299389499389498
1811,1.678241758241758
1812,1.6984615384615385
1813,1.6512820512820512
1814,1.6333089133089134
1815,1.6737484737484738
1816,1.7018315018315018
1817,1.659145299145299
1818,1.6445421245421246
1819,1.6883516483516483
1820,1.7063247863247863
1821,1.6692551892551892
1822,1.659145299145299
1823,1.704078144078144
1824,1.7231746031746031
1825,1.6636385836385836
1826,1.6501587301587302
1827,1.713064713064713
1828,1.7153113553113553
1829,1.6827350427350427
1830,1.6748717948717948
1831,1.711941391941392
1832,1.722051282051282
1833,1.6793650793650794
1834,1.6703785103785105
1835,1.7175579975579975
1836,1.7546275946275949
1837,1.6928449328449329
1838,1.6602686202686203
1839,1.7085714285714286
1840,1.7411477411477412
1841,1.6950915750915752
1842,1.6737484737484738
1843,1.7254212454212454
1844,1.757997557997558
1845,1.7007081807081808
1846,1.6793650793650794
1847,1.7433943833943837
1848,1.7456410256410255
1849,1.705201465201465
1850,1.6804884004884004
1851,1.7332844932844933
1852,1.7636141636141636
1853,1.713064713064713
1854,1.6973382173382174
1855,1.7624908424908423
1856,1.7984371184371184
1857,1.7624908424908423
1858,1.756874236874237
1859,1.82989010989011
1860,1.84
1861,1.7995604395604397
1862,1.7748473748473748
1863,1.8018070818070813
1864,1.7894505494505497
1865,1.722051282051282
1866,1.6973382173382174
1867,1.7478876678876678
1868,1.7782173382173383
1869,1.710818070818071
1870,1.6894749694749696
1871,1.7523809523809524
1872,1.7669841269841269
1873,1.713064713064713
1874,1.6950915750915752
1875,1.749010989010989
1876,1.7703540903540904
1877,1.713064713064713
1878,1.7254212454212454
1879,1.7602442002442005
1880,1.7422710622710622
1881,1.75013431013431
1882,1.996141636141636
1883,2.4982661782661784
1884,3.009377289377289
1885,3.222808302808303
1886,3.0554334554334552
1887,2.691477411477412
1888,2.2522588522588523
1889,1.874822954822955
1890,1.7344078144078143
1891,1.7647374847374848
1892,1.7344078144078143
1893,1.6557753357753358
1894,1.636678876678877
1895,1.6703785103785105
1896,1.677118437118437
1897,1.6187057387057386
1898,1.615335775335775
1899,1.6535286935286937
1900,1.6625152625152626
1901,1.613089133089133
1902,1.6074725274725274
1903,1.659145299145299
1904,1.6748717948717948
1905,1.61982905982906
1906,1.6164590964590964
1907,1.6917216117216116
1908,1.686105006105006
1909,1.631062271062271
1910,1.6288156288156288
1911,1.6883516483516483
1912,1.683858363858364
1913,1.6344322344322344
1914,1.6434188034188033
1915,1.6950915750915752
1916,1.7175579975579975
1917,1.6726251526251523
1918,1.6816117216117217
1919,1.7422710622710622
1920,1.75013431013431
1921,1.7007081807081808
1922,1.7007081807081808
1923,1.7613675213675213
1924,1.7726007326007327
1925,1.7186813186813186
1926,1.7276678876678877
1927,1.804053724053724
1928,1.8074236874236875
1929,1.7647374847374848
1930,1.7939438339438338
1931,1.8883028083028084
1932,1.891672771672772
1933,1.8624664224664225
1934,1.886056166056166
1935,1.968058608058608
1936,1.983785103785104
1937,1.935482295482296
1938,1.952332112332112
1939,2.020854700854701
1940,2.0107448107448107
1941,1.948962148962149
1942,1.932112332112332
1943,1.941098901098901
1944,1.8894261294261288
1945,1.7973137973137974
1946,1.768107448107448
1947,1.7883272283272282
1948,1.7523809523809524
1949,1.656898656898657
1950,1.6535286935286937
1951,1.6872283272283273
1952,1.6636385836385836
1953,1.6052258852258852
1954,1.611965811965812
1955,1.659145299145299
1956,1.638925518925519
1957,1.5951159951159952
1958,1.6142124542124543
1959,1.656898656898657
1960,1.6535286935286937
1961,1.6007326007326008
1962,1.6097191697191695
1963,1.6726251526251523
1964,1.6715018315018315
1965,1.6108424908424908
1966,1.6231990231990232
1967,1.677118437118437
1968,1.659145299145299
1969,1.61982905982906
1970,1.6288156288156288
1971,1.677118437118437
1972,1.6692551892551892
1973,1.6288156288156288
1974,1.636678876678877
1975,1.693968253968254
1976,1.686105006105006
1977,1.6265689865689863
1978,1.6422954822954825
1979,1.713064713064713
1980,1.6905982905982906
1981,1.6434188034188033
1982,1.6512820512820512
1983,1.713064713064713
1984,1.6950915750915752
1985,1.6501587301587302
1986,1.6625152625152626
1987,1.710818070818071
1988,1.705201465201465
1989,1.6456654456654456
1990,1.659145299145299
1991,1.7344078144078143
1992,1.713064713064713
1993,1.647912087912088
1994,1.6793650793650794
1995,1.7231746031746031
1996,1.7175579975579975
1997,1.6703785103785105
1998,1.6827350427350427
1999,1.7613675213675213
2000,1.7242979242979244
2001,1.678241758241758
2002,1.6995848595848595
2003,1.7433943833943837
2004,1.731037851037851
2005,1.6883516483516483
2006,1.6973382173382174
2007,1.7467643467643468
2008,1.738901098901099
2009,1.6816117216117217
2010,1.6973382173382174
2011,1.75013431013431
2012,1.75013431013431
2013,1.684981684981685
2014,1.7209279609279609
2015,1.7782173382173383
2016,1.74002442002442
2017,1.6894749694749696
2018,1.7231746031746031
2019,1.7726007326007327
2020,1.7624908424908423
2021,1.705201465201465
2022,1.7287912087912087
2023,1.783833943833944
2024,1.749010989010989
2025,1.7085714285714286
2026,1.7265445665445665
2027,1.7860805860805862
2028,1.7602442002442005
2029,1.705201465201465
2030,1.737777777777778
2031,1.7827106227106226
2032,1.7636141636141636
2033,1.7141880341880342
2034,1.731037851037851
2035,1.7973137973137974
2036,1.7647374847374848
2037,1.7085714285714286
2038,1.7445177045177045
2039,1.796190476190476
2040,1.779340659340659
2041,1.7186813186813186
2042,1.7422710622710622
2043,1.804053724053724
2044,1.768107448107448
2045,1.722051282051282
2046,1.7557509157509157
2047,1.7995604395604397
2048,1.7636141636141636
2049,1.7186813186813186
2050,1.737777777777778
2051,1.7883272283272282
2052,1.7737240537240535
2053,1.7175579975579975
2054,1.7557509157509157
2055,1.7973137973137974
2056,1.7737240537240535
2057,1.7231746031746031
2058,1.7445177045177045
2059,1.8063003663003665
2060,1.777094017094017
2061,1.7186813186813186
2062,1.7602442002442005
2063,1.8051770451770448
2064,1.775970695970696
2065,1.738901098901099
2066,1.7669841269841269
2067,1.8175335775335768
2068,1.7883272283272282
2069,1.7276678876678877
2070,1.756874236874237
2071,1.800683760683761
2072,1.7872039072039072
2073,1.7276678876678877
2074,1.7636141636141636
2075,1.8152869352869352
2076,1.7815873015873016
2077,1.738901098901099
2078,1.7726007326007327
2079,1.8152869352869352
2080,1.7905738705738703
2081,1.7321611721611725
2082,1.7703540903540904
2083,1.823150183150183
2084,1.7827106227106226
2085,1.74002442002442
2086,1.7815873015873016
2087,1.8242735042735043
2088,1.7916971916971918
2089,1.7478876678876678
2090,1.7860805860805862
2091,1.8164102564102564
2092,1.779340659340659
2093,1.749010989010989
2094,1.784957264957265
2095,1.8164102564102564
2096,1.7804639804639804
2097,1.7546275946275949
2098,1.775970695970696
2099,1.8175335775335768
