Index,II
0,1.993894993894994
1,1.957948717948718
2,1.955702075702076
3,2.018608058608059
4,2.011868131868132
5,1.920879120879121
6,1.9006593406593408
7,1.9163858363858364
8,1.869206349206349
9,1.7624908424908423
10,1.738901098901099
11,1.756874236874237
12,1.738901098901099
13,1.647912087912088
14,1.6445421245421246
15,1.693968253968254
16,1.6816117216117217
17,1.6052258852258852
18,1.6175824175824176
19,1.6715018315018315
20,1.6748717948717948
21,1.5996092796092796
22,1.6074725274725274
23,1.6816117216117217
24,1.665885225885226
25,1.6097191697191695
26,1.6164590964590964
27,1.684981684981685
28,1.6647619047619049
29,1.615335775335775
30,1.6299389499389498
31,1.6804884004884004
32,1.6804884004884004
33,1.611965811965812
34,1.631062271062271
35,1.6827350427350427
36,1.6748717948717948
37,1.6265689865689863
38,1.6254456654456657
39,1.6950915750915752
40,1.686105006105006
41,1.632185592185592
42,1.6344322344322344
43,1.6962148962148962
44,1.686105006105006
45,1.6411721611721612
46,1.647912087912088
47,1.704078144078144
48,1.7018315018315018
49,1.632185592185592
50,1.6434188034188033
51,1.7198046398046398
52,1.6984615384615385
53,1.64004884004884
54,1.6490354090354091
55,1.713064713064713
56,1.6984615384615385
57,1.6344322344322344
58,1.656898656898657
59,1.7141880341880342
60,1.7096947496947497
61,1.64004884004884
62,1.6546520146520147
63,1.7276678876678877
64,1.6995848595848595
65,1.656898656898657
66,1.658021978021978
67,1.731037851037851
68,1.710818070818071
69,1.6501587301587302
70,1.6681318681318682
71,1.7231746031746031
72,1.711941391941392
73,1.6535286935286937
74,1.683858363858364
75,1.7344078144078143
76,1.7265445665445665
77,1.6546520146520147
78,1.683858363858364
79,1.7355311355311356
80,1.7265445665445665
81,1.656898656898657
82,1.675995115995116
83,1.738901098901099
84,1.7287912087912087
85,1.667008547008547
86,1.6962148962148962
87,1.737777777777778
88,1.7344078144078143
89,1.6636385836385836
90,1.7063247863247863
91,1.749010989010989
92,1.7287912087912087
93,1.6793650793650794
94,1.7063247863247863
95,1.7591208791208792
96,1.7321611721611725
97,1.6917216117216116
98,1.6995848595848595
99,1.7624908424908423
100,1.737777777777778
101,1.6883516483516483
102,1.7007081807081808
103,1.7714774114774114
104,1.7355311355311356
105,1.6928449328449329
106,1.7074481074481074
107,1.7692307692307692
108,1.7366544566544566
109,1.6950915750915752
110,1.7175579975579975
111,1.768107448107448
112,1.7433943833943837
113,1.6793650793650794
114,1.7175579975579975
115,1.777094017094017
116,1.7366544566544566
117,1.6816117216117217
118,1.7321611721611725
119,1.7669841269841269
120,1.749010989010989
121,1.6883516483516483
122,1.7321611721611725
123,1.7714774114774114
124,1.7467643467643468
125,1.6905982905982906
126,1.72991452991453
127,1.7726007326007327
128,1.7512576312576311
129,1.6917216117216116
130,1.7344078144078143
131,1.8096703296703296
132,1.7726007326007327
133,1.74002442002442
134,1.7815873015873016
135,1.869206349206349
136,1.85010989010989
137,1.811916971916972
138,1.832136752136752
139,1.8781929181929184
140,1.8332600732600728
141,1.7883272283272282
142,1.7905738705738703
143,1.813040293040293
144,1.7737240537240535
145,1.693968253968254
146,1.737777777777778
147,1.783833943833944
148,1.7366544566544566
149,1.6995848595848595
150,1.713064713064713
151,1.7737240537240535
152,1.7321611721611725
153,1.6995848595848595
154,1.7321611721611725
155,1.7512576312576311
156,1.7332844932844933
157,1.8107936507936508
158,2.1848595848595846
159,2.716190476190476
160,3.107106227106227
161,3.196971916971917
162,2.9453479853479854
163,2.537582417582417
164,2.0545543345543344
165,1.7939438339438338
166,1.7265445665445665
167,1.7411477411477412
168,1.6647619047619049
169,1.6063492063492064
170,1.6254456654456657
171,1.6602686202686203
172,1.6085958485958487
173,1.5591697191697191
174,1.6052258852258852
175,1.64004884004884
176,1.604102564102564
177,1.574896214896215
178,1.6085958485958487
179,1.6512820512820512
180,1.611965811965812
181,1.573772893772894
182,1.6187057387057386
183,1.659145299145299
184,1.6276923076923078
185,1.5805128205128205
186,1.6411721611721612
187,1.6703785103785105
188,1.632185592185592
189,1.5973626373626373
190,1.6546520146520147
191,1.6894749694749696
192,1.6602686202686203
193,1.61982905982906
194,1.678241758241758
195,1.705201465201465
196,1.6748717948717948
197,1.6524053724053724
198,1.6894749694749696
199,1.737777777777778
200,1.7007081807081808
201,1.675995115995116
202,1.7422710622710622
203,1.779340659340659
204,1.7591208791208792
205,1.737777777777778
206,1.7894505494505497
207,1.855726495726496
208,1.8265201465201464
209,1.8141636141636144
210,1.883809523809524
211,1.932112332112332
212,1.9186324786324789
213,1.8927960927960927
214,1.968058608058608
215,1.9905250305250304
216,1.9512087912087912
217,1.9197557997558
218,1.932112332112332
219,1.9377289377289373
220,1.8534798534798536
221,1.7827106227106226
222,1.7872039072039072
223,1.768107448107448
224,1.7007081807081808
225,1.6501587301587302
226,1.6647619047619049
227,1.686105006105006
228,1.6175824175824176
229,1.5872527472527471
230,1.6467887667887668
231,1.6535286935286937
232,1.6142124542124543
233,1.5838827838827838
234,1.6422954822954825
235,1.656898656898657
236,1.5973626373626373
237,1.5917460317460317
238,1.6434188034188033
239,1.6467887667887668
240,1.6029792429792429
241,1.5827594627594628
242,1.6535286935286937
243,1.6715018315018315
244,1.6254456654456657
245,1.6108424908424908
246,1.6535286935286937
247,1.6872283272283273
248,1.61982905982906
249,1.6142124542124543
250,1.658021978021978
251,1.6962148962148962
252,1.6456654456654456
253,1.632185592185592
254,1.6715018315018315
255,1.7018315018315018
256,1.636678876678877
257,1.64004884004884
258,1.6827350427350427
259,1.7074481074481074
260,1.647912087912088
261,1.636678876678877
262,1.6950915750915752
263,1.7018315018315018
264,1.6613919413919414
265,1.6378021978021975
266,1.7007081807081808
267,1.710818070818071
268,1.667008547008547
269,1.658021978021978
270,1.7085714285714286
271,1.7153113553113553
272,1.6681318681318682
273,1.6490354090354091
274,1.7265445665445665
275,1.7254212454212454
276,1.6872283272283273
277,1.6703785103785105
278,1.731037851037851
279,1.7422710622710622
280,1.6793650793650794
281,1.6726251526251523
282,1.7186813186813186
283,1.7265445665445665
284,1.6827350427350427
285,1.675995115995116
286,1.731037851037851
287,1.7411477411477412
288,1.683858363858364
289,1.6804884004884004
290,1.7411477411477412
291,1.7557509157509157
292,1.6928449328449329
293,1.6950915750915752
294,1.7512576312576311
295,1.7512576312576311
296,1.686105006105006
297,1.7007081807081808
298,1.7445177045177045
299,1.7523809523809524
300,1.6973382173382174
301,1.6962148962148962
302,1.7602442002442005
303,1.768107448107448
304,1.7018315018315018
305,1.713064713064713
306,1.7512576312576311
307,1.7624908424908423
308,1.693968253968254
309,1.713064713064713
310,1.7669841269841269
311,1.783833943833944
312,1.7265445665445665
313,1.7265445665445665
314,1.7737240537240535
315,1.7782173382173383
316,1.711941391941392
317,1.7242979242979244
318,1.7692307692307692
319,1.783833943833944
320,1.713064713064713
321,1.731037851037851
322,1.7815873015873016
323,1.7782173382173383
324,1.7265445665445665
325,1.7321611721611725
326,1.7782173382173383
327,1.7782173382173383
328,1.7096947496947497
329,1.7186813186813186
330,1.7782173382173383
331,1.7973137973137974
332,1.7209279609279609
333,1.7422710622710622
334,1.8018070818070813
335,1.822026862026862
336,1.7613675213675213
337,1.795067155067155
338,1.8894261294261288
339,1.8894261294261288
340,1.847863247863248
341,1.827643467643468
342,1.891672771672772
343,1.883809523809524
344,1.8074236874236875
345,1.7782173382173383
346,1.8242735042735043
347,1.7916971916971918
348,1.7332844932844933
349,1.7287912087912087
350,1.7928205128205128
351,1.784957264957265
352,1.7242979242979244
353,1.7231746031746031
354,1.7804639804639804
355,1.7905738705738703
356,1.7186813186813186
357,1.7321611721611725
358,1.7366544566544566
359,1.7411477411477412
360,1.8265201465201464
361,2.189352869352869
362,2.7622466422466423
363,3.161025641025641
364,3.141929181929182
365,2.811672771672772
366,2.426373626373626
367,2.0275946275946275
368,1.7748473748473748
369,1.7164346764346765
370,1.7546275946275949
371,1.7254212454212454
372,1.6434188034188033
373,1.6411721611721612
374,1.684981684981685
375,1.6715018315018315
376,1.5951159951159952
377,1.6018559218559218
378,1.6613919413919414
379,1.6501587301587302
380,1.592869352869353
381,1.6175824175824176
382,1.6715018315018315
383,1.6703785103785105
384,1.6029792429792429
385,1.6243223443223442
386,1.6894749694749696
387,1.677118437118437
388,1.636678876678877
389,1.6445421245421246
390,1.7175579975579975
391,1.686105006105006
392,1.6445421245421246
393,1.6524053724053724
394,1.7265445665445665
395,1.704078144078144
396,1.6625152625152626
397,1.6748717948717948
398,1.737777777777778
399,1.7276678876678877
400,1.675995115995116
401,1.7085714285714286
402,1.7591208791208792
403,1.7658608058608058
404,1.7063247863247863
405,1.737777777777778
406,1.8096703296703296
407,1.795067155067155
408,1.75013431013431
409,1.795067155067155
410,1.8624664224664225
411,1.8647130647130647
412,1.8265201465201464
413,1.857973137973138
414,1.9422222222222223
415,1.9534554334554333
416,1.9051526251526247
417,1.9422222222222223
418,2.0006349206349205
419,1.993894993894994
420,1.9085225885225885
421,1.9017826617826616
422,1.9242490842490845
423,1.8534798534798536
424,1.7647374847374848
425,1.738901098901099
426,1.7523809523809524
427,1.7141880341880342
428,1.6254456654456657
429,1.64004884004884
430,1.6681318681318682
431,1.6490354090354091
432,1.574896214896215
433,1.592869352869353
434,1.6467887667887668
435,1.6164590964590964
436,1.568156288156288
437,1.5917460317460317
438,1.64004884004884
439,1.6142124542124543
440,1.5692796092796093
441,1.576019536019536
442,1.6512820512820512
443,1.615335775335775
444,1.568156288156288
445,1.5805128205128205
446,1.6557753357753358
447,1.61982905982906
448,1.567032967032967
449,1.5984859584859583
450,1.6546520146520147
451,1.6220757020757022
452,1.585006105006105
453,1.6007326007326008
454,1.6681318681318682
455,1.6344322344322344
456,1.5782661782661782
457,1.620952380952381
458,1.6647619047619049
459,1.636678876678877
460,1.5917460317460317
461,1.6164590964590964
462,1.6703785103785105
463,1.6535286935286937
464,1.6007326007326008
465,1.6355555555555557
466,1.6804884004884004
467,1.665885225885226
468,1.613089133089133
469,1.6467887667887668
470,1.6883516483516483
471,1.6681318681318682
472,1.6108424908424908
473,1.6524053724053724
474,1.6917216117216116
475,1.6692551892551892
476,1.6187057387057386
477,1.6445421245421246
478,1.6995848595848595
479,1.659145299145299
480,1.6220757020757022
481,1.6445421245421246
482,1.7074481074481074
483,1.6647619047619049
484,1.631062271062271
485,1.6490354090354091
486,1.710818070818071
487,1.667008547008547
488,1.6355555555555557
489,1.6546520146520147
490,1.7085714285714286
491,1.6715018315018315
492,1.6355555555555557
493,1.6636385836385836
494,1.7175579975579975
495,1.6737484737484738
496,1.64004884004884
497,1.6715018315018315
498,1.7209279609279609
499,1.6872283272283273
500,1.64004884004884
501,1.6962148962148962
502,1.7287912087912087
503,1.686105006105006
504,1.6524053724053724
505,1.6894749694749696
506,1.738901098901099
507,1.6827350427350427
508,1.6636385836385836
509,1.6928449328449329
510,1.7366544566544566
511,1.683858363858364
512,1.658021978021978
513,1.7018315018315018
514,1.7366544566544566
515,1.7007081807081808
516,1.658021978021978
517,1.6995848595848595
518,1.7321611721611725
519,1.6917216117216116
520,1.667008547008547
521,1.7007081807081808
522,1.7411477411477412
523,1.6872283272283273
524,1.667008547008547
525,1.722051282051282
526,1.7557509157509157
527,1.6962148962148962
528,1.6737484737484738
529,1.7209279609279609
530,1.7591208791208792
531,1.704078144078144
532,1.693968253968254
533,1.737777777777778
534,1.756874236874237
535,1.7231746031746031
536,1.684981684981685
537,1.7433943833943837
538,1.7658608058608058
539,1.7411477411477412
540,1.7276678876678877
541,1.777094017094017
542,1.8265201465201464
543,1.813040293040293
544,1.802930402930403
545,1.8467399267399267
546,1.8725763125763129
547,1.8063003663003665
548,1.7748473748473748
549,1.8265201465201464
550,1.8242735042735043
551,1.7467643467643468
552,1.7074481074481074
553,1.7467643467643468
554,1.7658608058608058
555,1.7085714285714286
556,1.6973382173382174
557,1.7445177045177045
558,1.7658608058608058
559,1.711941391941392
560,1.686105006105006
561,1.7557509157509157
562,1.7602442002442005
563,1.6973382173382174
564,1.7175579975579975
565,1.9725518925518928
566,2.4016605616605617
567,2.8667155067155066
568,3.1823687423687423
569,3.2059584859584858
570,2.85997557997558
571,2.315164835164836
572,1.9264957264957263
573,1.796190476190476
574,1.7433943833943837
575,1.6726251526251523
576,1.6220757020757022
577,1.665885225885226
578,1.658021978021978
579,1.6029792429792429
580,1.5782661782661782
581,1.6231990231990232
582,1.6434188034188033
583,1.6018559218559218
584,1.576019536019536
585,1.6411721611721612
586,1.6490354090354091
587,1.6074725274725274
588,1.5827594627594628
589,1.6501587301587302
590,1.658021978021978
591,1.6231990231990232
592,1.592869352869353
593,1.665885225885226
594,1.6737484737484738
595,1.6265689865689863
596,1.6288156288156288
597,1.6715018315018315
598,1.702954822954823
599,1.6467887667887668
600,1.64004884004884
601,1.6950915750915752
602,1.704078144078144
603,1.6636385836385836
604,1.6535286935286937
605,1.731037851037851
606,1.7445177045177045
607,1.693968253968254
608,1.7085714285714286
609,1.7602442002442005
610,1.783833943833944
611,1.7411477411477412
612,1.7478876678876678
613,1.8164102564102564
614,1.84
615,1.8141636141636144
616,1.823150183150183
617,1.8927960927960927
618,1.9287423687423688
619,1.8961660561660565
620,1.9163858363858364
621,1.975921855921856
622,2.006251526251526
623,1.9545787545787543
624,1.9500854700854704
625,1.9972649572649568
626,1.9703052503052505
627,1.883809523809524
628,1.8467399267399267
629,1.841123321123321
630,1.8107936507936508
631,1.7254212454212454
632,1.683858363858364
633,1.731037851037851
634,1.705201465201465
635,1.6422954822954825
636,1.6276923076923078
637,1.675995115995116
638,1.6692551892551892
639,1.6007326007326008
640,1.6097191697191695
641,1.6647619047619049
642,1.6613919413919414
643,1.613089133089133
644,1.6018559218559218
645,1.6692551892551892
646,1.6715018315018315
647,1.604102564102564
648,1.6063492063492064
649,1.6726251526251523
650,1.675995115995116
651,1.6187057387057386
652,1.636678876678877
653,1.684981684981685
654,1.6905982905982906
655,1.6265689865689863
656,1.6344322344322344
657,1.7063247863247863
658,1.6962148962148962
659,1.6378021978021975
660,1.6411721611721612
661,1.7153113553113553
662,1.7007081807081808
663,1.6490354090354091
664,1.6557753357753358
665,1.7164346764346765
666,1.7153113553113553
667,1.656898656898657
668,1.6703785103785105
669,1.7209279609279609
670,1.7175579975579975
671,1.6535286935286937
672,1.677118437118437
673,1.731037851037851
674,1.7209279609279609
675,1.6804884004884004
676,1.6905982905982906
677,1.757997557997558
678,1.7535042735042734
679,1.6962148962148962
680,1.7254212454212454
681,1.8063003663003665
682,1.8085470085470088
683,1.7512576312576311
684,1.7827106227106226
685,1.827643467643468
686,1.7658608058608058
687,1.677118437118437
688,1.6737484737484738
689,1.7344078144078143
690,1.7523809523809524
691,1.6894749694749696
692,1.713064713064713
693,1.768107448107448
694,1.7535042735042734
695,1.683858363858364
696,1.693968253968254
697,1.7557509157509157
698,1.72991452991453
699,1.6715018315018315
700,1.7085714285714286
701,1.768107448107448
702,1.731037851037851
703,1.675995115995116
704,1.7557509157509157
705,2.0455677655677658
706,2.46007326007326
707,2.87008547008547
708,3.186862026862027
709,3.1464224664224663
710,2.71956043956044
711,2.203956043956044
712,1.907399267399268
713,1.820903540903541
714,1.72991452991453
715,1.6501587301587302
716,1.6636385836385836
717,1.6883516483516483
718,1.6681318681318682
719,1.5984859584859583
720,1.6187057387057386
721,1.6703785103785105
722,1.6546520146520147
723,1.5872527472527471
724,1.6231990231990232
725,1.6872283272283273
726,1.6490354090354091
727,1.6074725274725274
728,1.6333089133089134
729,1.683858363858364
730,1.6692551892551892
731,1.6187057387057386
732,1.647912087912088
733,1.7007081807081808
734,1.6827350427350427
735,1.6422954822954825
736,1.6647619047619049
737,1.713064713064713
738,1.6962148962148962
739,1.6490354090354091
740,1.675995115995116
741,1.7355311355311356
742,1.7186813186813186
743,1.6748717948717948
744,1.7074481074481074
745,1.7647374847374848
746,1.757997557997558
747,1.704078144078144
748,1.7557509157509157
749,1.8186568986568987
750,1.8063003663003665
751,1.7860805860805862
752,1.832136752136752
753,1.9107692307692308
754,1.893919413919414
755,1.857973137973138
756,1.915262515262516
757,1.987155067155067
758,1.9736752136752136
759,1.963565323565324
760,2.018608058608059
761,2.061294261294261
762,2.002881562881563
763,1.9377289377289373
764,1.9309890109890109
765,1.920879120879121
766,1.8568498168498169
767,1.7557509157509157
768,1.757997557997558
769,1.7726007326007327
770,1.6995848595848595
771,1.6355555555555557
772,1.6715018315018315
773,1.6962148962148962
774,1.6378021978021975
775,1.6108424908424908
776,1.6344322344322344
777,1.6793650793650794
778,1.6467887667887668
779,1.5996092796092796
780,1.638925518925519
781,1.6692551892551892
782,1.636678876678877
783,1.5917460317460317
784,1.638925518925519
785,1.6737484737484738
786,1.6422954822954825
787,1.5973626373626373
788,1.6456654456654456
789,1.6962148962148962
790,1.6546520146520147
791,1.6333089133089134
792,1.6715018315018315
793,1.6962148962148962
794,1.636678876678877
795,1.613089133089133
796,1.665885225885226
797,1.7063247863247863
798,1.6715018315018315
799,1.6445421245421246
800,1.675995115995116
801,1.7153113553113553
802,1.656898656898657
803,1.6434188034188033
804,1.6816117216117217
805,1.722051282051282
806,1.6883516483516483
807,1.6490354090354091
808,1.693968253968254
809,1.7344078144078143
810,1.6917216117216116
811,1.656898656898657
812,1.705201465201465
813,1.7411477411477412
814,1.6928449328449329
815,1.659145299145299
816,1.7198046398046398
817,1.74002442002442
818,1.6883516483516483
819,1.6726251526251523
820,1.713064713064713
821,1.7535042735042734
822,1.7164346764346765
823,1.6726251526251523
824,1.7254212454212454
825,1.7478876678876678
826,1.7096947496947497
827,1.6793650793650794
828,1.7366544566544566
829,1.7669841269841269
830,1.7096947496947497
831,1.6950915750915752
832,1.7445177045177045
833,1.7636141636141636
834,1.7265445665445665
835,1.7007081807081808
836,1.749010989010989
837,1.7726007326007327
838,1.7141880341880342
839,1.7141880341880342
840,1.7535042735042734
841,1.777094017094017
842,1.7209279609279609
843,1.6962148962148962
844,1.7445177045177045
845,1.7737240537240535
846,1.7321611721611725
847,1.7074481074481074
848,1.7737240537240535
849,1.7782173382173383
850,1.7321611721611725
851,1.7242979242979244
852,1.7636141636141636
853,1.7894505494505497
854,1.7231746031746031
855,1.7153113553113553
856,1.7860805860805862
857,1.802930402930403
858,1.737777777777778
859,1.7344078144078143
860,1.779340659340659
861,1.7782173382173383
862,1.7175579975579975
863,1.7276678876678877
864,1.7872039072039072
865,1.8096703296703296
866,1.749010989010989
867,1.731037851037851
868,1.7815873015873016
869,1.783833943833944
870,1.7411477411477412
871,1.7287912087912087
872,1.7894505494505497
873,1.7984371184371184
874,1.7535042735042734
875,1.7321611721611725
876,1.7894505494505497
877,1.7984371184371184
878,1.74002442002442
879,1.7523809523809524
880,1.800683760683761
881,1.8186568986568987
882,1.7467643467643468
883,1.7467643467643468
884,1.7973137973137974
885,1.8096703296703296
886,1.7591208791208792
887,1.7456410256410255
888,1.8085470085470088
889,1.813040293040293
890,1.749010989010989
891,1.757997557997558
892,1.8063003663003665
893,1.820903540903541
894,1.75013431013431
895,1.7557509157509157
896,1.7973137973137974
897,1.8186568986568987
898,1.7546275946275949
899,1.757997557997558
900,1.8164102564102564
901,1.8085470085470088
902,1.7512576312576311
903,1.7467643467643468
904,1.802930402930403
905,1.820903540903541
906,1.7703540903540904
907,1.7872039072039072
908,1.8456166056166057
909,1.8826862026862028
910,1.8568498168498169
911,1.866959706959707
912,1.911892551892552
913,1.9186324786324789
914,1.848986568986569
915,1.8355067155067155
916,1.874822954822955
917,1.8534798534798536
918,1.7658608058608058
919,1.7613675213675213
920,1.8018070818070813
921,1.8085470085470088
922,1.7422710622710622
923,1.74002442002442
924,1.802930402930403
925,1.7894505494505497
926,1.738901098901099
927,1.7445177045177045
928,1.8085470085470088
929,1.7602442002442005
930,1.686105006105006
931,1.7827106227106226
932,2.137680097680098
933,2.593748473748474
934,2.9947741147741147
935,3.1778754578754578
936,2.9981440781440782
937,2.583638583638584
938,2.097240537240537
939,1.848986568986569
940,1.8018070818070813
941,1.7658608058608058
942,1.6917216117216116
943,1.658021978021978
944,1.7096947496947497
945,1.6962148962148962
946,1.6276923076923078
947,1.632185592185592
948,1.6793650793650794
949,1.6905982905982906
950,1.611965811965812
951,1.6378021978021975
952,1.6872283272283273
953,1.686105006105006
954,1.6422954822954825
955,1.6467887667887668
956,1.7018315018315018
957,1.6973382173382174
958,1.6501587301587302
959,1.647912087912088
960,1.7287912087912087
961,1.7074481074481074
962,1.6647619047619049
963,1.6647619047619049
964,1.7265445665445665
965,1.7355311355311356
966,1.6715018315018315
967,1.677118437118437
968,1.75013431013431
969,1.7366544566544566
970,1.6984615384615385
971,1.7007081807081808
972,1.7669841269841269
973,1.7815873015873016
974,1.7186813186813186
975,1.7456410256410255
976,1.8085470085470088
977,1.8096703296703296
978,1.7714774114774114
979,1.7804639804639804
980,1.8590964590964592
981,1.8658363858363856
982,1.825396825396825
983,1.8355067155067155
984,1.922002442002442
985,1.9343589743589744
986,1.8871794871794871
987,1.9287423687423688
988,2.002881562881563
989,2.0017582417582416
990,1.9455921855921856
991,1.964688644688645
992,2.011868131868132
993,1.993894993894994
994,1.904029304029304
995,1.8804395604395605
996,1.8905494505494504
997,1.8444932844932844
998,1.757997557997558
999,1.7265445665445665
1000,1.7602442002442005
1001,1.7344078144078143
1002,1.658021978021978
1003,1.659145299145299
1004,1.7063247863247863
1005,1.6928449328449329
1006,1.6299389499389498
1007,1.638925518925519
1008,1.6995848595848595
1009,1.686105006105006
1010,1.631062271062271
1011,1.6434188034188033
1012,1.705201465201465
1013,1.6950915750915752
1014,1.631062271062271
1015,1.658021978021978
1016,1.7096947496947497
1017,1.710818070818071
1018,1.6434188034188033
1019,1.6613919413919414
1020,1.7254212454212454
1021,1.7063247863247863
1022,1.6422954822954825
1023,1.675995115995116
1024,1.7254212454212454
1025,1.7242979242979244
1026,1.6625152625152626
1027,1.6715018315018315
1028,1.7366544566544566
1029,1.7287912087912087
1030,1.6647619047619049
1031,1.686105006105006
1032,1.7422710622710622
1033,1.7164346764346765
1034,1.6546520146520147
1035,1.686105006105006
1036,1.749010989010989
1037,1.7254212454212454
1038,1.6737484737484738
1039,1.6883516483516483
1040,1.74002442002442
1041,1.7411477411477412
1042,1.6692551892551892
1043,1.686105006105006
1044,1.7535042735042734
1045,1.7276678876678877
1046,1.6726251526251523
1047,1.6928449328449329
1048,1.7422710622710622
1049,1.74002442002442
1050,1.6737484737484738
1051,1.6917216117216116
1052,1.7613675213675213
1053,1.72991452991453
1054,1.6748717948717948
1055,1.6928449328449329
1056,1.7557509157509157
1057,1.7411477411477412
1058,1.6737484737484738
1059,1.7063247863247863
1060,1.7624908424908423
1061,1.7321611721611725
1062,1.6872283272283273
1063,1.705201465201465
1064,1.7546275946275949
1065,1.7478876678876678
1066,1.693968253968254
1067,1.704078144078144
1068,1.7703540903540904
1069,1.7478876678876678
1070,1.686105006105006
1071,1.7096947496947497
1072,1.777094017094017
1073,1.7411477411477412
1074,1.6950915750915752
1075,1.7153113553113553
1076,1.7703540903540904
1077,1.7456410256410255
1078,1.6905982905982906
1079,1.722051282051282
1080,1.7737240537240535
1081,1.7557509157509157
1082,1.6950915750915752
1083,1.7153113553113553
1084,1.783833943833944
1085,1.7523809523809524
1086,1.6962148962148962
1087,1.731037851037851
1088,1.7726007326007327
1089,1.7512576312576311
1090,1.7063247863247863
1091,1.7287912087912087
1092,1.796190476190476
1093,1.7658608058608058
1094,1.7007081807081808
1095,1.74002442002442
1096,1.784957264957265
1097,1.757997557997558
1098,1.713064713064713
1099,1.7366544566544566
1100,1.7916971916971918
1101,1.7669841269841269
1102,1.7096947496947497
1103,1.7321611721611725
1104,1.800683760683761
1105,1.7726007326007327
1106,1.7366544566544566
1107,1.7815873015873016
1108,1.8355067155067155
1109,1.8467399267399267
1110,1.8085470085470088
1111,1.85010989010989
1112,1.8927960927960927
1113,1.871452991452992
1114,1.7973137973137974
1115,1.831013431013431
1116,1.8546031746031744
1117,1.800683760683761
1118,1.7355311355311356
1119,1.749010989010989
1120,1.7984371184371184
1121,1.7602442002442005
1122,1.7074481074481074
1123,1.72991452991453
1124,1.7905738705738703
1125,1.7445177045177045
1126,1.7063247863247863
1127,1.7242979242979244
1128,1.783833943833944
1129,1.7366544566544566
1130,1.684981684981685
1131,1.7894505494505497
1132,2.1006105006105007
1133,2.506129426129426
1134,2.93973137973138
1135,3.253137973137973
1136,3.178998778998779
1137,2.731916971916972
1138,2.194969474969475
1139,1.9017826617826616
1140,1.8074236874236875
1141,1.7198046398046398
1142,1.6501587301587302
1143,1.6546520146520147
1144,1.6973382173382174
1145,1.6333089133089134
1146,1.5805128205128205
1147,1.6265689865689863
1148,1.656898656898657
1149,1.6231990231990232
1150,1.574896214896215
1151,1.620952380952381
1152,1.6625152625152626
1153,1.632185592185592
1154,1.5883760683760684
1155,1.631062271062271
1156,1.6737484737484738
1157,1.632185592185592
1158,1.5996092796092796
1159,1.6422954822954825
1160,1.6737484737484738
1161,1.6490354090354091
1162,1.6074725274725274
1163,1.6557753357753358
1164,1.7018315018315018
1165,1.6512820512820512
1166,1.631062271062271
1167,1.6703785103785105
1168,1.704078144078144
1169,1.675995115995116
1170,1.64004884004884
1171,1.693968253968254
1172,1.7332844932844933
1173,1.6928449328449329
1174,1.6827350427350427
1175,1.7209279609279609
1176,1.7658608058608058
1177,1.737777777777778
1178,1.7096947496947497
1179,1.779340659340659
1180,1.823150183150183
1181,1.7995604395604397
1182,1.7928205128205128
1183,1.8512332112332115
1184,1.9107692307692308
1185,1.874822954822955
1186,1.8703296703296703
1187,1.9332356532356527
1188,1.993894993894994
1189,1.9512087912087912
1190,1.9253724053724053
1191,1.977045177045177
1192,1.9826617826617827
1193,1.914139194139194
1194,1.847863247863248
1195,1.842246642246642
1196,1.843369963369964
1197,1.7523809523809524
1198,1.6883516483516483
1199,1.7198046398046398
1200,1.7085714285714286
1201,1.6490354090354091
1202,1.6175824175824176
1203,1.6456654456654456
1204,1.6715018315018315
1205,1.6276923076923078
1206,1.5838827838827838
1207,1.6378021978021975
1208,1.6613919413919414
1209,1.61982905982906
1210,1.5951159951159952
1211,1.6535286935286937
1212,1.6703785103785105
1213,1.6276923076923078
1214,1.6085958485958487
1215,1.6467887667887668
1216,1.6827350427350427
1217,1.6299389499389498
1218,1.6052258852258852
1219,1.6546520146520147
1220,1.6950915750915752
1221,1.647912087912088
1222,1.615335775335775
1223,1.6715018315018315
1224,1.6894749694749696
1225,1.647912087912088
1226,1.6142124542124543
1227,1.675995115995116
1228,1.7074481074481074
1229,1.6512820512820512
1230,1.6276923076923078
1231,1.6793650793650794
1232,1.7007081807081808
1233,1.656898656898657
1234,1.632185592185592
1235,1.6962148962148962
1236,1.7153113553113553
1237,1.6804884004884004
1238,1.6456654456654456
1239,1.6894749694749696
1240,1.731037851037851
1241,1.6737484737484738
1242,1.6557753357753358
1243,1.6973382173382174
1244,1.7265445665445665
1245,1.6692551892551892
1246,1.6625152625152626
1247,1.7085714285714286
1248,1.7411477411477412
1249,1.6737484737484738
1250,1.6726251526251523
1251,1.713064713064713
1252,1.7355311355311356
1253,1.6737484737484738
1254,1.6726251526251523
1255,1.7198046398046398
1256,1.7478876678876678
1257,1.684981684981685
1258,1.6726251526251523
1259,1.72991452991453
1260,1.749010989010989
1261,1.6962148962148962
1262,1.686105006105006
1263,1.7276678876678877
1264,1.7523809523809524
1265,1.6816117216117217
1266,1.6793650793650794
1267,1.7287912087912087
1268,1.7445177045177045
1269,1.702954822954823
1270,1.683858363858364
1271,1.7445177045177045
1272,1.7512576312576311
1273,1.6917216117216116
1274,1.6962148962148962
1275,1.7523809523809524
1276,1.7624908424908423
1277,1.705201465201465
1278,1.6995848595848595
1279,1.7467643467643468
1280,1.7613675213675213
1281,1.6950915750915752
1282,1.7007081807081808
1283,1.7591208791208792
1284,1.768107448107448
1285,1.7153113553113553
1286,1.6950915750915752
1287,1.749010989010989
1288,1.7624908424908423
1289,1.7063247863247863
1290,1.710818070818071
1291,1.7613675213675213
1292,1.783833943833944
1293,1.7141880341880342
1294,1.7198046398046398
1295,1.7624908424908423
1296,1.7737240537240535
1297,1.7153113553113553
1298,1.710818070818071
1299,1.7737240537240535
1300,1.7748473748473748
1301,1.7209279609279609
1302,1.704078144078144
1303,1.7647374847374848
1304,1.7703540903540904
1305,1.7265445665445665
1306,1.7085714285714286
1307,1.775970695970696
1308,1.777094017094017
1309,1.7175579975579975
1310,1.7344078144078143
1311,1.7916971916971918
1312,1.8063003663003665
1313,1.7669841269841269
1314,1.7726007326007327
1315,1.8635897435897435
1316,1.8883028083028084
1317,1.8242735042735043
1318,1.823150183150183
1319,1.8736996336996337
1320,1.8590964590964592
1321,1.784957264957265
1322,1.7624908424908423
1323,1.7984371184371184
1324,1.7995604395604397
1325,1.7164346764346765
1326,1.7007081807081808
1327,1.7591208791208792
1328,1.7624908424908423
1329,1.6962148962148962
1330,1.7096947496947497
1331,1.7557509157509157
1332,1.757997557997558
1333,1.7085714285714286
1334,1.7063247863247863
1335,1.7242979242979244
1336,1.7647374847374848
1337,1.920879120879121
1338,2.3095482295482297
1339,2.893675213675213
1340,3.1913553113553115
1341,3.093626373626374
1342,2.6836141636141635
1343,2.311794871794872
1344,1.9545787545787543
1345,1.75013431013431
1346,1.7007081807081808
1347,1.7231746031746031
1348,1.710818070818071
1349,1.6231990231990232
1350,1.6097191697191695
1351,1.6737484737484738
1352,1.665885225885226
1353,1.592869352869353
1354,1.5973626373626373
1355,1.6445421245421246
1356,1.647912087912088
1357,1.5883760683760684
1358,1.5906227106227109
1359,1.6703785103785105
1360,1.6681318681318682
1361,1.6142124542124543
1362,1.6097191697191695
1363,1.6636385836385836
1364,1.665885225885226
1365,1.6085958485958487
1366,1.6108424908424908
1367,1.6703785103785105
1368,1.6748717948717948
1369,1.6175824175824176
1370,1.6243223443223442
1371,1.7007081807081808
1372,1.6917216117216116
1373,1.6546520146520147
1374,1.6557753357753358
1375,1.72991452991453
1376,1.7085714285714286
1377,1.6512820512820512
1378,1.6737484737484738
1379,1.7344078144078143
1380,1.737777777777778
1381,1.6928449328449329
1382,1.7063247863247863
1383,1.7916971916971918
1384,1.7815873015873016
1385,1.7411477411477412
1386,1.775970695970696
1387,1.8444932844932844
1388,1.8546031746031744
1389,1.8107936507936508
1390,1.8546031746031744
1391,1.9377289377289373
1392,1.9343589743589744
1393,1.9062759462759464
1394,1.9163858363858364
1395,1.9792918192918192
1396,1.977045177045177
1397,1.883809523809524
1398,1.8804395604395605
1399,1.895042735042735
1400,1.8343833943833945
1401,1.7422710622710622
1402,1.722051282051282
1403,1.7344078144078143
1404,1.6984615384615385
1405,1.620952380952381
1406,1.6074725274725274
1407,1.6422954822954825
1408,1.632185592185592
1409,1.549059829059829
1410,1.5692796092796093
1411,1.61982905982906
1412,1.5917460317460317
1413,1.5501831501831502
1414,1.5546764346764346
1415,1.6265689865689863
1416,1.6063492063492064
1417,1.5423199023199023
1418,1.573772893772894
1419,1.631062271062271
1420,1.6164590964590964
1421,1.5591697191697191
1422,1.573772893772894
1423,1.6411721611721612
1424,1.6108424908424908
1425,1.5535531135531135
1426,1.5793894993894997
1427,1.6378021978021975
1428,1.6333089133089134
1429,1.565909645909646
1430,1.5973626373626373
1431,1.6535286935286937
1432,1.6299389499389498
1433,1.5805128205128205
1434,1.5894993894993894
1435,1.6501587301587302
1436,1.647912087912088
1437,1.5805128205128205
1438,1.6142124542124543
1439,1.6737484737484738
1440,1.6456654456654456
1441,1.592869352869353
1442,1.6063492063492064
1443,1.677118437118437
1444,1.6535286935286937
1445,1.592869352869353
1446,1.6220757020757022
1447,1.677118437118437
1448,1.6737484737484738
1449,1.6052258852258852
1450,1.64004884004884
1451,1.6962148962148962
1452,1.6647619047619049
1453,1.6231990231990232
1454,1.6333089133089134
1455,1.6917216117216116
1456,1.6883516483516483
1457,1.6187057387057386
1458,1.636678876678877
1459,1.7007081807081808
1460,1.6804884004884004
1461,1.6175824175824176
1462,1.658021978021978
1463,1.7085714285714286
1464,1.677118437118437
1465,1.6411721611721612
1466,1.656898656898657
1467,1.710818070818071
1468,1.704078144078144
1469,1.638925518925519
1470,1.6748717948717948
1471,1.7287912087912087
1472,1.6962148962148962
1473,1.647912087912088
1474,1.6816117216117217
1475,1.7231746031746031
1476,1.6995848595848595
1477,1.6445421245421246
1478,1.684981684981685
1479,1.731037851037851
1480,1.704078144078144
1481,1.6715018315018315
1482,1.6950915750915752
1483,1.738901098901099
1484,1.7198046398046398
1485,1.659145299145299
1486,1.7018315018315018
1487,1.74002442002442
1488,1.7231746031746031
1489,1.6793650793650794
1490,1.6917216117216116
1491,1.75013431013431
1492,1.7344078144078143
1493,1.6737484737484738
1494,1.7164346764346765
1495,1.757997557997558
1496,1.731037851037851
1497,1.6816117216117217
1498,1.7186813186813186
1499,1.775970695970696
1500,1.7456410256410255
1501,1.6905982905982906
1502,1.731037851037851
1503,1.7658608058608058
1504,1.7456410256410255
1505,1.6905982905982906
1506,1.7153113553113553
1507,1.768107448107448
1508,1.7636141636141636
1509,1.7175579975579975
1510,1.757997557997558
1511,1.8242735042735043
1512,1.8287667887667889
1513,1.7939438339438338
1514,1.843369963369964
1515,1.8972893772893773
1516,1.8534798534798536
1517,1.795067155067155
1518,1.8242735042735043
1519,1.8467399267399267
1520,1.8018070818070813
1521,1.7254212454212454
1522,1.7355311355311356
1523,1.7883272283272282
1524,1.7445177045177045
1525,1.710818070818071
1526,1.7287912087912087
1527,1.7804639804639804
1528,1.7546275946275949
1529,1.6950915750915752
1530,1.7321611721611725
1531,1.7984371184371184
1532,1.7287912087912087
1533,1.678241758241758
1534,1.8377533577533576
1535,2.214065934065934
1536,2.674627594627595
1537,3.0745299145299145
1538,3.276727716727717
1539,3.07003663003663
1540,2.5746520146520147
1541,2.0556776556776555
1542,1.8467399267399267
1543,1.784957264957265
1544,1.7175579975579975
1545,1.6411721611721612
1546,1.6501587301587302
1547,1.6962148962148962
1548,1.6445421245421246
1549,1.5917460317460317
1550,1.6220757020757022
1551,1.6602686202686203
1552,1.6243223443223442
1553,1.5771428571428572
1554,1.6175824175824176
1555,1.6715018315018315
1556,1.632185592185592
1557,1.5883760683760684
1558,1.6411721611721612
1559,1.6793650793650794
1560,1.6456654456654456
1561,1.613089133089133
1562,1.6490354090354091
1563,1.6962148962148962
1564,1.6748717948717948
1565,1.6254456654456657
1566,1.6647619047619049
1567,1.7063247863247863
1568,1.6894749694749696
1569,1.6422954822954825
1570,1.6804884004884004
1571,1.7467643467643468
1572,1.7085714285714286
1573,1.6636385836385836
1574,1.702954822954823
1575,1.7726007326007327
1576,1.7332844932844933
1577,1.7007081807081808
1578,1.7523809523809524
1579,1.7973137973137974
1580,1.7669841269841269
1581,1.757997557997558
1582,1.7995604395604397
1583,1.8624664224664225
1584,1.8512332112332115
1585,1.8085470085470088
1586,1.8658363858363856
1587,1.9433455433455435
1588,1.915262515262516
1589,1.904029304029304
1590,1.968058608058608
1591,2.0141147741147742
1592,1.984908424908425
1593,1.963565323565324
1594,1.993894993894994
1595,2.0107448107448107
1596,1.9287423687423688
1597,1.847863247863248
1598,1.8568498168498169
1599,1.842246642246642
1600,1.7658608058608058
1601,1.7018315018315018
1602,1.7141880341880342
1603,1.749010989010989
1604,1.6793650793650794
1605,1.64004884004884
1606,1.659145299145299
1607,1.6894749694749696
1608,1.64004884004884
1609,1.5996092796092796
1610,1.647912087912088
1611,1.6883516483516483
1612,1.6378021978021975
1613,1.6029792429792429
1614,1.6557753357753358
1615,1.6962148962148962
1616,1.6512820512820512
1617,1.613089133089133
1618,1.658021978021978
1619,1.6872283272283273
1620,1.6625152625152626
1621,1.6254456654456657
1622,1.665885225885226
1623,1.7074481074481074
1624,1.6625152625152626
1625,1.6243223443223442
1626,1.6737484737484738
1627,1.7153113553113553
1628,1.656898656898657
1629,1.6333089133089134
1630,1.686105006105006
1631,1.7265445665445665
1632,1.693968253968254
1633,1.6625152625152626
1634,1.7141880341880342
1635,1.7512576312576311
1636,1.710818070818071
1637,1.710818070818071
1638,1.7647374847374848
1639,1.8018070818070813
1640,1.7669841269841269
1641,1.731037851037851
1642,1.7726007326007327
1643,1.7602442002442005
1644,1.6962148962148962
1645,1.658021978021978
1646,1.7085714285714286
1647,1.75013431013431
1648,1.704078144078144
1649,1.683858363858364
1650,1.710818070818071
1651,1.7467643467643468
1652,1.6827350427350427
1653,1.6647619047619049
1654,1.7063247863247863
1655,1.731037851037851
1656,1.6917216117216116
1657,1.6715018315018315
1658,1.7411477411477412
1659,1.75013431013431
1660,1.6995848595848595
1661,1.779340659340659
1662,2.0815140415140414
1663,2.5724053724053726
1664,2.9824175824175825
1665,3.189108669108669
1666,3.075653235653236
1667,2.648791208791209
1668,2.132063492063492
1669,1.8343833943833945
1670,1.757997557997558
1671,1.7422710622710622
1672,1.658021978021978
1673,1.6231990231990232
1674,1.6501587301587302
1675,1.6715018315018315
1676,1.593992673992674
1677,1.5906227106227109
1678,1.6243223443223442
1679,1.658021978021978
1680,1.5917460317460317
1681,1.5805128205128205
1682,1.6512820512820512
1683,1.665885225885226
1684,1.604102564102564
1685,1.5951159951159952
1686,1.658021978021978
1687,1.6816117216117217
1688,1.6231990231990232
1689,1.6164590964590964
1690,1.6681318681318682
1691,1.6804884004884004
1692,1.64004884004884
1693,1.6355555555555557
1694,1.6962148962148962
1695,1.7007081807081808
1696,1.665885225885226
1697,1.656898656898657
1698,1.711941391941392
1699,1.72991452991453
1700,1.6905982905982906
1701,1.683858363858364
1702,1.757997557997558
1703,1.7737240537240535
1704,1.7231746031746031
1705,1.7344078144078143
1706,1.8141636141636144
1707,1.8265201465201464
1708,1.7815873015873016
1709,1.7984371184371184
1710,1.8736996336996337
1711,1.913015873015873
1712,1.8804395604395605
1713,1.8894261294261288
1714,1.966935286935287
1715,1.991648351648352
1716,1.9500854700854704
1717,1.96019536019536
1718,2.006251526251526
1719,1.989401709401709
1720,1.895042735042735
1721,1.8624664224664225
1722,1.8647130647130647
1723,1.822026862026862
1724,1.7321611721611725
1725,1.7063247863247863
1726,1.7276678876678877
1727,1.6973382173382174
1728,1.6276923076923078
1729,1.6243223443223442
1730,1.658021978021978
1731,1.6456654456654456
1732,1.5872527472527471
1733,1.5984859584859583
1734,1.6456654456654456
1735,1.6422954822954825
1736,1.5838827838827838
1737,1.5962393162393165
1738,1.6546520146520147
1739,1.6535286935286937
1740,1.6052258852258852
1741,1.6108424908424908
1742,1.6692551892551892
1743,1.6546520146520147
1744,1.604102564102564
1745,1.6299389499389498
1746,1.6883516483516483
1747,1.6703785103785105
1748,1.6108424908424908
1749,1.6231990231990232
1750,1.684981684981685
1751,1.678241758241758
1752,1.6164590964590964
1753,1.64004884004884
1754,1.7018315018315018
1755,1.6804884004884004
1756,1.6142124542124543
1757,1.6524053724053724
1758,1.713064713064713
1759,1.7007081807081808
1760,1.64004884004884
1761,1.6490354090354091
1762,1.713064713064713
1763,1.7074481074481074
1764,1.647912087912088
1765,1.6715018315018315
1766,1.7186813186813186
1767,1.705201465201465
1768,1.6456654456654456
1769,1.675995115995116
1770,1.7445177045177045
1771,1.7254212454212454
1772,1.659145299145299
1773,1.6793650793650794
1774,1.7478876678876678
1775,1.7265445665445665
1776,1.675995115995116
1777,1.705201465201465
1778,1.7456410256410255
1779,1.7355311355311356
1780,1.6715018315018315
1781,1.6872283272283273
1782,1.7636141636141636
1783,1.7332844932844933
1784,1.677118437118437
1785,1.7141880341880342
1786,1.7591208791208792
1787,1.74002442002442
1788,1.7007081807081808
1789,1.7265445665445665
1790,1.777094017094017
1791,1.749010989010989
1792,1.6816117216117217
1793,1.7063247863247863
1794,1.775970695970696
1795,1.7512576312576311
1796,1.6917216117216116
1797,1.7186813186813186
1798,1.7714774114774114
1799,1.7512576312576311
1800,1.704078144078144
1801,1.72991452991453
1802,1.7894505494505497
1803,1.757997557997558
1804,1.7007081807081808
1805,1.7186813186813186
1806,1.7737240537240535
1807,1.7557509157509157
1808,1.6962148962148962
1809,1.7344078144078143
1810,1.795067155067155
1811,1.7703540903540904
1812,1.7096947496947497
1813,1.7332844932844933
1814,1.7815873015873016
1815,1.7692307692307692
1816,1.7231746031746031
1817,1.74002442002442
1818,1.7939438339438338
1819,1.7658608058608058
1820,1.7209279609279609
1821,1.737777777777778
1822,1.7905738705738703
1823,1.7624908424908423
1824,1.7153113553113553
1825,1.7557509157509157
1826,1.811916971916972
1827,1.775970695970696
1828,1.74002442002442
1829,1.749010989010989
1830,1.802930402930403
1831,1.7647374847374848
1832,1.7153113553113553
1833,1.7591208791208792
1834,1.8085470085470088
1835,1.7726007326007327
1836,1.7198046398046398
1837,1.7669841269841269
1838,1.8186568986568987
1839,1.7894505494505497
1840,1.737777777777778
1841,1.7624908424908423
1842,1.8242735042735043
1843,1.775970695970696
1844,1.7366544566544566
1845,1.757997557997558
1846,1.8141636141636144
1847,1.7782173382173383
1848,1.7231746031746031
1849,1.7647374847374848
1850,1.8051770451770448
1851,1.7872039072039072
1852,1.7366544566544566
1853,1.783833943833944
1854,1.822026862026862
1855,1.7804639804639804
1856,1.7287912087912087
1857,1.7726007326007327
1858,1.823150183150183
1859,1.7905738705738703
1860,1.749010989010989
1861,1.7658608058608058
1862,1.8388766788766788
1863,1.8018070818070813
1864,1.777094017094017
1865,1.8074236874236875
1866,1.895042735042735
1867,1.8725763125763129
1868,1.8456166056166057
1869,1.869206349206349
1870,1.911892551892552
1871,1.8658363858363856
1872,1.811916971916972
1873,1.8287667887667889
1874,1.8512332112332115
1875,1.7916971916971918
1876,1.749010989010989
1877,1.7669841269841269
1878,1.827643467643468
1879,1.768107448107448
1880,1.7254212454212454
1881,1.756874236874237
1882,1.7995604395604397
1883,1.7512576312576311
1884,1.7164346764346765
1885,1.7602442002442005
1886,1.784957264957265
1887,1.7164346764346765
1888,1.7624908424908423
1889,2.0815140415140414
1890,2.5813919413919413
1891,3.006007326007326
1892,3.1947252747252746
1893,3.0363369963369964
1894,2.643174603174604
1895,2.1623931623931623
1896,1.8366300366300363
1897,1.7737240537240535
1898,1.7647374847374848
1899,1.7096947496947497
1900,1.6467887667887668
1901,1.6737484737484738
1902,1.704078144078144
1903,1.6692551892551892
1904,1.61982905982906
1905,1.658021978021978
1906,1.678241758241758
1907,1.6265689865689863
1908,1.6018559218559218
1909,1.6490354090354091
1910,1.6804884004884004
1911,1.6557753357753358
1912,1.6164590964590964
1913,1.6726251526251523
1914,1.6962148962148962
1915,1.6625152625152626
1916,1.61982905982906
1917,1.6827350427350427
1918,1.7007081807081808
1919,1.6647619047619049
1920,1.6333089133089134
1921,1.6872283272283273
1922,1.72991452991453
1923,1.675995115995116
1924,1.658021978021978
1925,1.7186813186813186
1926,1.75013431013431
1927,1.6984615384615385
1928,1.6905982905982906
1929,1.7433943833943837
1930,1.7737240537240535
1931,1.7276678876678877
1932,1.713064713064713
1933,1.7748473748473748
1934,1.7973137973137974
1935,1.757997557997558
1936,1.7591208791208792
1937,1.825396825396825
1938,1.8568498168498169
1939,1.8287667887667889
1940,1.820903540903541
1941,1.8961660561660565
1942,1.922002442002442
1943,1.8849328449328449
1944,1.886056166056166
1945,1.9568253968253968
1946,2.006251526251526
1947,1.9467155067155064
1948,1.948962148962149
1949,1.9826617826617827
1950,1.987155067155067
1951,1.891672771672772
1952,1.8456166056166057
1953,1.8388766788766788
1954,1.8242735042735043
1955,1.7276678876678877
1956,1.6973382173382174
1957,1.7198046398046398
1958,1.7175579975579975
1959,1.636678876678877
1960,1.6254456654456657
1961,1.667008547008547
1962,1.6737484737484738
1963,1.6063492063492064
1964,1.6108424908424908
1965,1.667008547008547
1966,1.6715018315018315
1967,1.5996092796092796
1968,1.613089133089133
1969,1.6625152625152626
1970,1.6816117216117217
1971,1.6187057387057386
1972,1.6187057387057386
1973,1.683858363858364
1974,1.6883516483516483
1975,1.6187057387057386
1976,1.6097191697191695
1977,1.678241758241758
1978,1.6793650793650794
1979,1.6276923076923078
1980,1.620952380952381
1981,1.6827350427350427
1982,1.704078144078144
1983,1.6299389499389498
1984,1.6411721611721612
1985,1.702954822954823
1986,1.6950915750915752
1987,1.6501587301587302
1988,1.638925518925519
1989,1.7096947496947497
1990,1.6995848595848595
1991,1.6467887667887668
1992,1.659145299145299
1993,1.7186813186813186
1994,1.713064713064713
1995,1.6681318681318682
1996,1.6737484737484738
1997,1.7445177045177045
1998,1.7591208791208792
1999,1.711941391941392
2000,1.7321611721611725
2001,1.8085470085470088
2002,1.802930402930403
2003,1.7186813186813186
2004,1.7096947496947497
2005,1.7186813186813186
2006,1.7007081807081808
2007,1.636678876678877
2008,1.6647619047619049
2009,1.7321611721611725
2010,1.7153113553113553
2011,1.6602686202686203
2012,1.6613919413919414
2013,1.7287912087912087
2014,1.7141880341880342
2015,1.6501587301587302
2016,1.6692551892551892
2017,1.7242979242979244
2018,1.7198046398046398
2019,1.6647619047619049
2020,1.6793650793650794
2021,1.7186813186813186
2022,1.7265445665445665
2023,1.8242735042735043
2024,2.2005860805860804
2025,2.7723565323565325
2026,3.163272283272283
2027,3.150915750915751
2028,2.808302808302808
2029,2.389304029304029
2030,1.991648351648352
2031,1.7242979242979244
2032,1.6894749694749696
2033,1.7153113553113553
2034,1.6928449328449329
2035,1.615335775335775
2036,1.615335775335775
2037,1.6535286935286937
2038,1.6422954822954825
2039,1.5726495726495726
2040,1.592869352869353
2041,1.6501587301587302
2042,1.6344322344322344
2043,1.5883760683760684
2044,1.6052258852258852
2045,1.658021978021978
2046,1.6524053724053724
2047,1.5917460317460317
2048,1.6074725274725274
2049,1.6872283272283273
2050,1.6625152625152626
2051,1.61982905982906
2052,1.6434188034188033
2053,1.6950915750915752
2054,1.6917216117216116
2055,1.638925518925519
2056,1.656898656898657
2057,1.72991452991453
2058,1.7074481074481074
2059,1.6524053724053724
2060,1.6748717948717948
2061,1.75013431013431
2062,1.7433943833943837
2063,1.6917216117216116
2064,1.713064713064713
2065,1.7905738705738703
2066,1.7748473748473748
2067,1.7321611721611725
2068,1.7726007326007327
2069,1.8388766788766788
2070,1.8366300366300363
2071,1.8152869352869352
2072,1.85010989010989
2073,1.914139194139194
2074,1.927619047619048
2075,1.891672771672772
2076,1.9309890109890109
2077,2.021978021978022
2078,2.015238095238096
2079,1.952332112332112
2080,1.977045177045177
2081,2.0129914529914528
2082,1.955702075702076
2083,1.847863247863248
2084,1.8265201465201464
2085,1.8635897435897435
2086,1.7827106227106226
2087,1.705201465201465
2088,1.6872283272283273
2089,1.722051282051282
2090,1.6872283272283273
2091,1.6108424908424908
2092,1.64004884004884
2093,1.6793650793650794
2094,1.6445421245421246
2095,1.6018559218559218
2096,1.6108424908424908
2097,1.6737484737484738
2098,1.6535286935286937
2099,1.5883760683760684
