Index,II
0,1.6703785103785105
1,1.659145299145299
2,1.5984859584859583
3,1.615335775335775
4,1.6917216117216116
5,1.665885225885226
6,1.6231990231990232
7,1.6220757020757022
8,1.7007081807081808
9,1.678241758241758
10,1.636678876678877
11,1.6422954822954825
12,1.7186813186813186
13,1.6917216117216116
14,1.6456654456654456
15,1.6602686202686203
16,1.7422710622710622
17,1.7231746031746031
18,1.678241758241758
19,1.6905982905982906
20,1.7636141636141636
21,1.7714774114774114
22,1.7209279609279609
23,1.7624908424908423
24,1.827643467643468
25,1.8444932844932844
26,1.7883272283272282
27,1.8366300366300363
28,1.9175091575091567
29,1.9175091575091567
30,1.8894261294261288
31,1.913015873015873
32,1.986031746031746
33,1.9781684981684984
34,1.9085225885225885
35,1.8927960927960927
36,1.935482295482296
37,1.868083028083028
38,1.7647374847374848
39,1.7445177045177045
40,1.7703540903540904
41,1.7175579975579975
42,1.6265689865689863
43,1.6254456654456657
44,1.6748717948717948
45,1.6602686202686203
46,1.5793894993894997
47,1.5951159951159952
48,1.665885225885226
49,1.631062271062271
50,1.5771428571428572
51,1.6097191697191695
52,1.6613919413919414
53,1.6411721611721612
54,1.5883760683760684
55,1.6018559218559218
56,1.6636385836385836
57,1.6434188034188033
58,1.5816361416361415
59,1.6187057387057386
60,1.6737484737484738
61,1.6557753357753358
62,1.5996092796092796
63,1.631062271062271
64,1.6793650793650794
65,1.6726251526251523
66,1.6097191697191695
67,1.638925518925519
68,1.6917216117216116
69,1.6715018315018315
70,1.6265689865689863
71,1.6456654456654456
72,1.7096947496947497
73,1.6883516483516483
74,1.6288156288156288
75,1.6512820512820512
76,1.7231746031746031
77,1.6917216117216116
78,1.647912087912088
79,1.6625152625152626
80,1.7422710622710622
81,1.711941391941392
82,1.6726251526251523
83,1.7007081807081808
84,1.777094017094017
85,1.7815873015873016
86,1.7198046398046398
87,1.7535042735042734
88,1.7804639804639804
89,1.722051282051282
90,1.6288156288156288
91,1.6422954822954825
92,1.7198046398046398
93,1.711941391941392
94,1.6512820512820512
95,1.6681318681318682
96,1.7321611721611725
97,1.7096947496947497
98,1.6411721611721612
99,1.6681318681318682
100,1.7186813186813186
101,1.686105006105006
102,1.647912087912088
103,1.675995115995116
104,1.7276678876678877
105,1.7287912087912087
106,1.6501587301587302
107,1.6973382173382174
108,1.8355067155067155
109,2.097240537240537
110,2.479169719169719
111,2.9588278388278386
112,3.225054945054945
113,3.025103785103785
114,2.5353357753357755
115,2.112967032967033
116,1.886056166056166
117,1.7467643467643468
118,1.636678876678877
119,1.6231990231990232
120,1.6715018315018315
121,1.6187057387057386
122,1.5591697191697191
123,1.5636630036630037
124,1.631062271062271
125,1.611965811965812
126,1.549059829059829
127,1.5726495726495726
128,1.6422954822954825
129,1.6029792429792429
130,1.5625396825396825
131,1.5962393162393165
132,1.647912087912088
133,1.6355555555555557
134,1.5827594627594628
135,1.5962393162393165
136,1.6703785103785105
137,1.6333089133089134
138,1.5883760683760684
139,1.6265689865689863
140,1.6681318681318682
141,1.6512820512820512
142,1.5951159951159952
143,1.6422954822954825
144,1.7007081807081808
145,1.684981684981685
146,1.6299389499389498
147,1.677118437118437
148,1.7276678876678877
149,1.7254212454212454
150,1.667008547008547
151,1.711941391941392
152,1.777094017094017
153,1.7602442002442005
154,1.7198046398046398
155,1.7523809523809524
156,1.823150183150183
157,1.81978021978022
158,1.8018070818070813
159,1.832136752136752
160,1.922002442002442
161,1.9231257631257632
162,1.8804395604395605
163,1.9264957264957263
164,1.9995115995115995
165,1.983785103785104
166,1.9163858363858364
167,1.9242490842490845
168,1.9545787545787543
169,1.877069597069597
170,1.7995604395604397
171,1.7860805860805862
172,1.795067155067155
173,1.7321611721611725
174,1.6535286935286937
175,1.6501587301587302
176,1.665885225885226
177,1.6288156288156288
178,1.574896214896215
179,1.593992673992674
180,1.6220757020757022
181,1.5917460317460317
182,1.5501831501831502
183,1.5894993894993894
184,1.636678876678877
185,1.6254456654456657
186,1.5704029304029303
187,1.5872527472527471
188,1.6456654456654456
189,1.620952380952381
190,1.5546764346764346
191,1.6097191697191695
192,1.658021978021978
193,1.6187057387057386
194,1.573772893772894
195,1.5906227106227109
196,1.6546520146520147
197,1.615335775335775
198,1.5816361416361415
199,1.61982905982906
200,1.677118437118437
201,1.6434188034188033
202,1.604102564102564
203,1.6355555555555557
204,1.678241758241758
205,1.6613919413919414
206,1.6029792429792429
207,1.6445421245421246
208,1.6872283272283273
209,1.659145299145299
210,1.620952380952381
211,1.6445421245421246
212,1.705201465201465
213,1.678241758241758
214,1.6220757020757022
215,1.6546520146520147
216,1.7186813186813186
217,1.683858363858364
218,1.6456654456654456
219,1.693968253968254
220,1.7344078144078143
221,1.7018315018315018
222,1.6378021978021975
223,1.6793650793650794
224,1.7276678876678877
225,1.6950915750915752
226,1.6625152625152626
227,1.6827350427350427
228,1.7445177045177045
229,1.6984615384615385
230,1.656898656898657
231,1.6883516483516483
232,1.74002442002442
233,1.6995848595848595
234,1.6456654456654456
235,1.6984615384615385
236,1.74002442002442
237,1.7186813186813186
238,1.6737484737484738
239,1.7096947496947497
240,1.7714774114774114
241,1.72991452991453
242,1.6894749694749696
243,1.7186813186813186
244,1.7546275946275949
245,1.7175579975579975
246,1.677118437118437
247,1.711941391941392
248,1.7714774114774114
249,1.7265445665445665
250,1.6804884004884004
251,1.711941391941392
252,1.7714774114774114
253,1.737777777777778
254,1.6950915750915752
255,1.7276678876678877
256,1.7692307692307692
257,1.7366544566544566
258,1.6894749694749696
259,1.731037851037851
260,1.7905738705738703
261,1.7422710622710622
262,1.702954822954823
263,1.7276678876678877
264,1.7827106227106226
265,1.7512576312576311
266,1.6973382173382174
267,1.7287912087912087
268,1.777094017094017
269,1.737777777777778
270,1.6962148962148962
271,1.75013431013431
272,1.7872039072039072
273,1.7647374847374848
274,1.7007081807081808
275,1.7366544566544566
276,1.7905738705738703
277,1.7433943833943837
278,1.711941391941392
279,1.7467643467643468
280,1.802930402930403
281,1.7557509157509157
282,1.731037851037851
283,1.7535042735042734
284,1.7894505494505497
285,1.7557509157509157
286,1.7153113553113553
287,1.7411477411477412
288,1.784957264957265
289,1.7478876678876678
290,1.6917216117216116
291,1.749010989010989
292,1.7883272283272282
293,1.7546275946275949
294,1.7198046398046398
295,1.7433943833943837
296,1.7860805860805862
297,1.7602442002442005
298,1.702954822954823
299,1.7591208791208792
300,1.7928205128205128
301,1.7512576312576311
302,1.7287912087912087
303,1.7636141636141636
304,1.7995604395604397
305,1.7669841269841269
306,1.7164346764346765
307,1.7624908424908423
308,1.7995604395604397
309,1.7546275946275949
310,1.7344078144078143
311,1.7692307692307692
312,1.8175335775335768
313,1.7624908424908423
314,1.7332844932844933
315,1.775970695970696
316,1.8085470085470088
317,1.7658608058608058
318,1.7276678876678877
319,1.7804639804639804
320,1.8074236874236875
321,1.7624908424908423
322,1.7254212454212454
323,1.7815873015873016
324,1.813040293040293
325,1.7613675213675213
326,1.7332844932844933
327,1.777094017094017
328,1.811916971916972
329,1.7748473748473748
330,1.7332844932844933
331,1.7939438339438338
332,1.8141636141636144
333,1.7647374847374848
334,1.7557509157509157
335,1.783833943833944
336,1.822026862026862
337,1.7737240537240535
338,1.72991452991453
339,1.7916971916971918
340,1.804053724053724
341,1.775970695970696
342,1.7624908424908423
343,1.825396825396825
344,1.8781929181929184
345,1.8388766788766788
346,1.8377533577533576
347,1.8883028083028084
348,1.902905982905983
349,1.8523565323565323
350,1.820903540903541
351,1.871452991452992
352,1.868083028083028
353,1.8085470085470088
354,1.7535042735042734
355,1.7883272283272282
356,1.795067155067155
357,1.7478876678876678
358,1.7344078144078143
359,1.783833943833944
360,1.7939438339438338
361,1.7433943833943837
362,1.731037851037851
363,1.7804639804639804
364,1.7984371184371184
365,1.756874236874237
366,1.6917216117216116
367,1.75013431013431
368,1.9455921855921856
369,2.2488888888888887
370,2.722930402930403
371,3.17001221001221
372,3.3025641025641024
373,2.935238095238095
374,2.4465934065934065
375,2.066910866910867
376,1.8849328449328449
377,1.738901098901099
378,1.6973382173382174
379,1.7231746031746031
380,1.7231746031746031
381,1.6613919413919414
382,1.6097191697191695
383,1.6524053724053724
384,1.677118437118437
385,1.6220757020757022
386,1.6142124542124543
387,1.6546520146520147
388,1.678241758241758
389,1.6265689865689863
390,1.6029792429792429
391,1.6681318681318682
392,1.678241758241758
393,1.632185592185592
394,1.6187057387057386
395,1.6726251526251523
396,1.702954822954823
397,1.6456654456654456
398,1.6265689865689863
399,1.6950915750915752
400,1.7164346764346765
401,1.6613919413919414
402,1.6434188034188033
403,1.7007081807081808
404,1.713064713064713
405,1.6703785103785105
406,1.6625152625152626
407,1.711941391941392
408,1.7344078144078143
409,1.704078144078144
410,1.6816117216117217
411,1.7265445665445665
412,1.7692307692307692
413,1.7074481074481074
414,1.6917216117216116
415,1.7669841269841269
416,1.7804639804639804
417,1.7411477411477412
418,1.7433943833943837
419,1.8018070818070813
420,1.832136752136752
421,1.802930402930403
422,1.8175335775335768
423,1.87931623931624
424,1.9197557997558
425,1.8894261294261288
426,1.8804395604395605
427,1.9624420024420024
428,1.991648351648352
429,1.9467155067155064
430,1.9287423687423688
431,1.9613186813186807
432,1.948962148962149
433,1.869206349206349
434,1.8063003663003665
435,1.832136752136752
436,1.7995604395604397
437,1.7242979242979244
438,1.6804884004884004
439,1.7276678876678877
440,1.713064713064713
441,1.6557753357753358
442,1.6187057387057386
443,1.665885225885226
444,1.678241758241758
445,1.6175824175824176
446,1.6142124542124543
447,1.6602686202686203
448,1.678241758241758
449,1.6142124542124543
450,1.6231990231990232
451,1.6681318681318682
452,1.6726251526251523
453,1.615335775335775
454,1.615335775335775
455,1.6602686202686203
456,1.678241758241758
457,1.6333089133089134
458,1.6063492063492064
459,1.6726251526251523
460,1.6804884004884004
461,1.6220757020757022
462,1.615335775335775
463,1.683858363858364
464,1.6984615384615385
465,1.6299389499389498
466,1.620952380952381
467,1.6917216117216116
468,1.6962148962148962
469,1.647912087912088
470,1.632185592185592
471,1.6973382173382174
472,1.704078144078144
473,1.656898656898657
474,1.6299389499389498
475,1.7018315018315018
476,1.6995848595848595
477,1.6467887667887668
478,1.6344322344322344
479,1.693968253968254
480,1.7209279609279609
481,1.6613919413919414
482,1.6501587301587302
483,1.7018315018315018
484,1.7242979242979244
485,1.6602686202686203
486,1.6625152625152626
487,1.7231746031746031
488,1.722051282051282
489,1.678241758241758
490,1.6557753357753358
491,1.710818070818071
492,1.731037851037851
493,1.686105006105006
494,1.6647619047619049
495,1.7344078144078143
496,1.7411477411477412
497,1.6816117216117217
498,1.6692551892551892
499,1.731037851037851
500,1.7456410256410255
501,1.6804884004884004
502,1.684981684981685
503,1.738901098901099
504,1.7445177045177045
505,1.7007081807081808
506,1.6793650793650794
507,1.7411477411477412
508,1.7433943833943837
509,1.6962148962148962
510,1.683858363858364
511,1.7512576312576311
512,1.7523809523809524
513,1.6984615384615385
514,1.6984615384615385
515,1.7636141636141636
516,1.7557509157509157
517,1.7018315018315018
518,1.7085714285714286
519,1.7602442002442005
520,1.756874236874237
521,1.7018315018315018
522,1.6950915750915752
523,1.757997557997558
524,1.7804639804639804
525,1.710818070818071
526,1.711941391941392
527,1.7669841269841269
528,1.779340659340659
529,1.7209279609279609
530,1.7164346764346765
531,1.783833943833944
532,1.7714774114774114
533,1.7231746031746031
534,1.7096947496947497
535,1.777094017094017
536,1.7737240537240535
537,1.72991452991453
538,1.7209279609279609
539,1.7782173382173383
540,1.7714774114774114
541,1.711941391941392
542,1.7096947496947497
543,1.777094017094017
544,1.7748473748473748
545,1.7209279609279609
546,1.713064713064713
547,1.775970695970696
548,1.7883272283272282
549,1.7141880341880342
550,1.711941391941392
551,1.779340659340659
552,1.7714774114774114
553,1.7265445665445665
554,1.7209279609279609
555,1.784957264957265
556,1.7815873015873016
557,1.7287912087912087
558,1.713064713064713
559,1.783833943833944
560,1.7894505494505497
561,1.7186813186813186
562,1.7164346764346765
563,1.784957264957265
564,1.7894505494505497
565,1.7366544566544566
566,1.72991452991453
567,1.8063003663003665
568,1.7905738705738703
569,1.7456410256410255
570,1.7254212454212454
571,1.784957264957265
572,1.7883272283272282
573,1.7344078144078143
574,1.731037851037851
575,1.7973137973137974
576,1.7883272283272282
577,1.7265445665445665
578,1.737777777777778
579,1.7916971916971918
580,1.813040293040293
581,1.7557509157509157
582,1.7636141636141636
583,1.843369963369964
584,1.8568498168498169
585,1.7916971916971918
586,1.7872039072039072
587,1.8444932844932844
588,1.8265201465201464
589,1.7804639804639804
590,1.7815873015873016
591,1.8074236874236875
592,1.7973137973137974
593,1.7198046398046398
594,1.7242979242979244
595,1.795067155067155
596,1.7726007326007327
597,1.722051282051282
598,1.7175579975579975
599,1.7726007326007327
600,1.7726007326007327
601,1.7007081807081808
602,1.7355311355311356
603,1.7995604395604397
604,1.7647374847374848
605,1.7321611721611725
606,1.9006593406593408
607,2.3387545787545787
608,2.821782661782662
609,3.158778998778999
610,3.222808302808303
611,2.95995115995116
612,2.4701831501831504
613,1.9781684981684984
614,1.7928205128205128
615,1.7726007326007327
616,1.72991452991453
617,1.6355555555555557
618,1.6467887667887668
619,1.6804884004884004
620,1.6613919413919414
621,1.5951159951159952
622,1.585006105006105
623,1.638925518925519
624,1.6355555555555557
625,1.565909645909646
626,1.5906227106227109
627,1.6636385836385836
628,1.6422954822954825
629,1.5996092796092796
630,1.6108424908424908
631,1.6737484737484738
632,1.6726251526251523
633,1.5984859584859583
634,1.6220757020757022
635,1.677118437118437
636,1.665885225885226
637,1.6187057387057386
638,1.6265689865689863
639,1.705201465201465
640,1.6804884004884004
641,1.631062271062271
642,1.6467887667887668
643,1.7276678876678877
644,1.704078144078144
645,1.6647619047619049
646,1.6748717948717948
647,1.737777777777778
648,1.7355311355311356
649,1.677118437118437
650,1.7164346764346765
651,1.7703540903540904
652,1.775970695970696
653,1.7096947496947497
654,1.7591208791208792
655,1.825396825396825
656,1.820903540903541
657,1.7860805860805862
658,1.8096703296703296
659,1.8883028083028084
660,1.8972893772893773
661,1.84
662,1.8961660561660565
663,1.9703052503052505
664,1.966935286935287
665,1.9264957264957263
666,1.9467155067155064
667,2.01973137973138
668,1.9703052503052505
669,1.8736996336996337
670,1.868083028083028
671,1.87931623931624
672,1.8265201465201464
673,1.7141880341880342
674,1.722051282051282
675,1.738901098901099
676,1.704078144078144
677,1.6142124542124543
678,1.636678876678877
679,1.6737484737484738
680,1.656898656898657
681,1.576019536019536
682,1.6085958485958487
683,1.6613919413919414
684,1.6467887667887668
685,1.5883760683760684
686,1.604102564102564
687,1.667008547008547
688,1.6467887667887668
689,1.5996092796092796
690,1.6243223443223442
691,1.6872283272283273
692,1.6512820512820512
693,1.6052258852258852
694,1.6288156288156288
695,1.675995115995116
696,1.6602686202686203
697,1.5962393162393165
698,1.6243223443223442
699,1.6962148962148962
700,1.6681318681318682
701,1.6074725274725274
702,1.6355555555555557
703,1.705201465201465
704,1.6681318681318682
705,1.620952380952381
706,1.64004884004884
707,1.7153113553113553
708,1.6804884004884004
709,1.6231990231990232
710,1.658021978021978
711,1.713064713064713
712,1.6905982905982906
713,1.6299389499389498
714,1.6703785103785105
715,1.711941391941392
716,1.6984615384615385
717,1.6411721611721612
718,1.6748717948717948
719,1.7276678876678877
720,1.6995848595848595
721,1.6524053724053724
722,1.6962148962148962
723,1.7332844932844933
724,1.704078144078144
725,1.656898656898657
726,1.6928449328449329
727,1.7321611721611725
728,1.7063247863247863
729,1.6411721611721612
730,1.683858363858364
731,1.7422710622710622
732,1.7018315018315018
733,1.6681318681318682
734,1.7063247863247863
735,1.7467643467643468
736,1.7175579975579975
737,1.6625152625152626
738,1.7175579975579975
739,1.757997557997558
740,1.7209279609279609
741,1.6681318681318682
742,1.6973382173382174
743,1.768107448107448
744,1.7242979242979244
745,1.6950915750915752
746,1.7344078144078143
747,1.7714774114774114
748,1.7344078144078143
749,1.6681318681318682
750,1.7096947496947497
751,1.7726007326007327
752,1.7433943833943837
753,1.6894749694749696
754,1.74002442002442
755,1.7692307692307692
756,1.731037851037851
757,1.6984615384615385
758,1.7456410256410255
759,1.7872039072039072
760,1.7433943833943837
761,1.6995848595848595
762,1.7276678876678877
763,1.779340659340659
764,1.7344078144078143
765,1.693968253968254
766,1.72991452991453
767,1.784957264957265
768,1.7557509157509157
769,1.7153113553113553
770,1.749010989010989
771,1.7939438339438338
772,1.756874236874237
773,1.7007081807081808
774,1.738901098901099
775,1.784957264957265
776,1.756874236874237
777,1.705201465201465
778,1.7523809523809524
779,1.7815873015873016
780,1.7535042735042734
781,1.704078144078144
782,1.7433943833943837
783,1.7984371184371184
784,1.7647374847374848
785,1.7198046398046398
786,1.7624908424908423
787,1.7973137973137974
788,1.7602442002442005
789,1.711941391941392
790,1.7669841269841269
791,1.802930402930403
792,1.756874236874237
793,1.7209279609279609
794,1.7445177045177045
795,1.8018070818070813
796,1.749010989010989
797,1.7175579975579975
798,1.7411477411477412
799,1.7894505494505497
800,1.7456410256410255
801,1.704078144078144
802,1.7613675213675213
803,1.7928205128205128
804,1.7726007326007327
805,1.7321611721611725
806,1.7726007326007327
807,1.8085470085470088
808,1.7467643467643468
809,1.7153113553113553
810,1.7658608058608058
811,1.800683760683761
812,1.7815873015873016
813,1.7591208791208792
814,1.820903540903541
815,1.875946275946276
816,1.827643467643468
817,1.7860805860805862
818,1.8377533577533576
819,1.8613431013431008
820,1.813040293040293
821,1.749010989010989
822,1.7726007326007327
823,1.7894505494505497
824,1.737777777777778
825,1.7265445665445665
826,1.7602442002442005
827,1.8063003663003665
828,1.7456410256410255
829,1.7186813186813186
830,1.7624908424908423
831,1.804053724053724
832,1.7433943833943837
833,1.7332844932844933
834,1.7355311355311356
835,1.756874236874237
836,1.7737240537240535
837,2.011868131868132
838,2.515115995115995
839,3.041953601953602
840,3.24976800976801
841,3.030720390720391
842,2.636434676434676
843,2.2106959706959706
844,1.8725763125763129
845,1.7321611721611725
846,1.749010989010989
847,1.7535042735042734
848,1.6827350427350427
849,1.64004884004884
850,1.686105006105006
851,1.6894749694749696
852,1.647912087912088
853,1.6220757020757022
854,1.678241758241758
855,1.683858363858364
856,1.647912087912088
857,1.611965811965812
858,1.6692551892551892
859,1.6962148962148962
860,1.6501587301587302
861,1.6175824175824176
862,1.6872283272283273
863,1.6984615384615385
864,1.665885225885226
865,1.6333089133089134
866,1.6995848595848595
867,1.7153113553113553
868,1.6748717948717948
869,1.6512820512820512
870,1.7164346764346765
871,1.7276678876678877
872,1.6905982905982906
873,1.6647619047619049
874,1.7198046398046398
875,1.7535042735042734
876,1.702954822954823
877,1.6883516483516483
878,1.7546275946275949
879,1.7636141636141636
880,1.713064713064713
881,1.7096947496947497
882,1.7827106227106226
883,1.804053724053724
884,1.7535042735042734
885,1.7636141636141636
886,1.820903540903541
887,1.8613431013431008
888,1.811916971916972
889,1.832136752136752
890,1.8972893772893773
891,1.9366056166056167
892,1.8871794871794871
893,1.891672771672772
894,1.9826617826617827
895,1.987155067155067
896,1.9568253968253968
897,1.9388522588522588
898,1.993894993894994
899,1.9691819291819288
900,1.875946275946276
901,1.8343833943833945
902,1.85010989010989
903,1.8175335775335768
904,1.7321611721611725
905,1.6827350427350427
906,1.731037851037851
907,1.705201465201465
908,1.6378021978021975
909,1.6142124542124543
910,1.6636385836385836
911,1.6636385836385836
912,1.6097191697191695
913,1.5917460317460317
914,1.659145299145299
915,1.6524053724053724
916,1.5984859584859583
917,1.593992673992674
918,1.6490354090354091
919,1.667008547008547
920,1.5962393162393165
921,1.6074725274725274
922,1.6546520146520147
923,1.6602686202686203
924,1.615335775335775
925,1.6074725274725274
926,1.6715018315018315
927,1.677118437118437
928,1.611965811965812
929,1.6220757020757022
930,1.6737484737484738
931,1.6827350427350427
932,1.615335775335775
933,1.6265689865689863
934,1.6827350427350427
935,1.6928449328449329
936,1.6231990231990232
937,1.6378021978021975
938,1.6883516483516483
939,1.7018315018315018
940,1.6344322344322344
941,1.6456654456654456
942,1.710818070818071
943,1.7096947496947497
944,1.6456654456654456
945,1.658021978021978
946,1.7085714285714286
947,1.7164346764346765
948,1.6557753357753358
949,1.6512820512820512
950,1.7287912087912087
951,1.711941391941392
952,1.659145299145299
953,1.6636385836385836
954,1.7242979242979244
955,1.7164346764346765
956,1.656898656898657
957,1.6535286935286937
958,1.7254212454212454
959,1.7141880341880342
960,1.6613919413919414
961,1.6602686202686203
962,1.72991452991453
963,1.7355311355311356
964,1.6602686202686203
965,1.6703785103785105
966,1.7355311355311356
967,1.7265445665445665
968,1.6748717948717948
969,1.6703785103785105
970,1.7355311355311356
971,1.7332844932844933
972,1.684981684981685
973,1.6793650793650794
974,1.75013431013431
975,1.731037851037851
976,1.6793650793650794
977,1.678241758241758
978,1.7546275946275949
979,1.7355311355311356
980,1.6905982905982906
981,1.686105006105006
982,1.7546275946275949
983,1.7445177045177045
984,1.686105006105006
985,1.7007081807081808
986,1.7613675213675213
987,1.7512576312576311
988,1.693968253968254
989,1.693968253968254
990,1.7613675213675213
991,1.7535042735042734
992,1.6883516483516483
993,1.7063247863247863
994,1.7602442002442005
995,1.7591208791208792
996,1.6905982905982906
997,1.7096947496947497
998,1.7782173382173383
999,1.7669841269841269
1000,1.6928449328449329
1001,1.7209279609279609
1002,1.7669841269841269
1003,1.7602442002442005
1004,1.705201465201465
1005,1.7186813186813186
1006,1.7669841269841269
1007,1.7658608058608058
1008,1.7007081807081808
1009,1.7074481074481074
1010,1.7703540903540904
1011,1.7523809523809524
1012,1.704078144078144
1013,1.7175579975579975
1014,1.783833943833944
1015,1.756874236874237
1016,1.6995848595848595
1017,1.705201465201465
1018,1.7714774114774114
1019,1.7669841269841269
1020,1.7007081807081808
1021,1.731037851037851
1022,1.7894505494505497
1023,1.7726007326007327
1024,1.7175579975579975
1025,1.7242979242979244
1026,1.7905738705738703
1027,1.7815873015873016
1028,1.7085714285714286
1029,1.731037851037851
1030,1.7939438339438338
1031,1.7703540903540904
1032,1.713064713064713
1033,1.7332844932844933
1034,1.784957264957265
1035,1.7815873015873016
1036,1.7074481074481074
1037,1.7411477411477412
1038,1.7995604395604397
1039,1.802930402930403
1040,1.7647374847374848
1041,1.7872039072039072
1042,1.866959706959707
1043,1.841123321123321
1044,1.7737240537240535
1045,1.7872039072039072
1046,1.848986568986569
1047,1.811916971916972
1048,1.7355311355311356
1049,1.72991452991453
1050,1.7827106227106226
1051,1.777094017094017
1052,1.710818070818071
1053,1.7332844932844933
1054,1.7872039072039072
1055,1.7748473748473748
1056,1.702954822954823
1057,1.731037851037851
1058,1.784957264957265
1059,1.7782173382173383
1060,1.713064713064713
1061,1.7141880341880342
1062,1.84
1063,2.021978021978022
1064,2.374700854700855
1065,2.8925518925518925
1066,3.295824175824176
1067,3.2733577533577534
1068,2.8397557997558
1069,2.347741147741148
1070,2.021978021978022
1071,1.81978021978022
1072,1.6872283272283273
1073,1.6905982905982906
1074,1.7096947496947497
1075,1.678241758241758
1076,1.592869352869353
1077,1.615335775335775
1078,1.6681318681318682
1079,1.6355555555555557
1080,1.5827594627594628
1081,1.5951159951159952
1082,1.6625152625152626
1083,1.636678876678877
1084,1.5827594627594628
1085,1.5984859584859583
1086,1.656898656898657
1087,1.6490354090354091
1088,1.5894993894993894
1089,1.6164590964590964
1090,1.6748717948717948
1091,1.647912087912088
1092,1.5973626373626373
1093,1.61982905982906
1094,1.6973382173382174
1095,1.6625152625152626
1096,1.6175824175824176
1097,1.6344322344322344
1098,1.705201465201465
1099,1.6883516483516483
1100,1.6299389499389498
1101,1.665885225885226
1102,1.7344078144078143
1103,1.7198046398046398
1104,1.659145299145299
1105,1.6984615384615385
1106,1.75013431013431
1107,1.7411477411477412
1108,1.6804884004884004
1109,1.722051282051282
1110,1.7815873015873016
1111,1.768107448107448
1112,1.7287912087912087
1113,1.7804639804639804
1114,1.8377533577533576
1115,1.831013431013431
1116,1.784957264957265
1117,1.8388766788766788
1118,1.9085225885225885
1119,1.913015873015873
1120,1.8658363858363856
1121,1.935482295482296
1122,1.9882783882783883
1123,1.9815384615384608
1124,1.9197557997558
1125,1.927619047619048
1126,1.96019536019536
1127,1.87931623931624
1128,1.7872039072039072
1129,1.777094017094017
1130,1.7984371184371184
1131,1.7366544566544566
1132,1.6512820512820512
1133,1.6636385836385836
1134,1.7018315018315018
1135,1.6422954822954825
1136,1.576019536019536
1137,1.6142124542124543
1138,1.6625152625152626
1139,1.6355555555555557
1140,1.5782661782661782
1141,1.6187057387057386
1142,1.6804884004884004
1143,1.638925518925519
1144,1.5906227106227109
1145,1.6108424908424908
1146,1.6692551892551892
1147,1.6299389499389498
1148,1.574896214896215
1149,1.6231990231990232
1150,1.6602686202686203
1151,1.6434188034188033
1152,1.592869352869353
1153,1.6265689865689863
1154,1.6748717948717948
1155,1.6411721611721612
1156,1.6007326007326008
1157,1.6254456654456657
1158,1.6950915750915752
1159,1.6535286935286937
1160,1.61982905982906
1161,1.6333089133089134
1162,1.6872283272283273
1163,1.6703785103785105
1164,1.6187057387057386
1165,1.656898656898657
1166,1.705201465201465
1167,1.6636385836385836
1168,1.6142124542124543
1169,1.6501587301587302
1170,1.6962148962148962
1171,1.675995115995116
1172,1.6288156288156288
1173,1.6737484737484738
1174,1.7321611721611725
1175,1.6995848595848595
1176,1.6344322344322344
1177,1.6726251526251523
1178,1.7186813186813186
1179,1.6928449328449329
1180,1.6378021978021975
1181,1.6917216117216116
1182,1.7254212454212454
1183,1.6950915750915752
1184,1.647912087912088
1185,1.686105006105006
1186,1.749010989010989
1187,1.7085714285714286
1188,1.667008547008547
1189,1.6894749694749696
1190,1.7422710622710622
1191,1.713064713064713
1192,1.6546520146520147
1193,1.686105006105006
1194,1.74002442002442
1195,1.7063247863247863
1196,1.6647619047619049
1197,1.7186813186813186
1198,1.75013431013431
1199,1.7198046398046398
1200,1.6715018315018315
1201,1.702954822954823
1202,1.75013431013431
1203,1.72991452991453
1204,1.665885225885226
1205,1.7164346764346765
1206,1.7557509157509157
1207,1.713064713064713
1208,1.683858363858364
1209,1.7153113553113553
1210,1.7692307692307692
1211,1.7366544566544566
1212,1.684981684981685
1213,1.7242979242979244
1214,1.7557509157509157
1215,1.7186813186813186
1216,1.6917216117216116
1217,1.7186813186813186
1218,1.7636141636141636
1219,1.7209279609279609
1220,1.6804884004884004
1221,1.7344078144078143
1222,1.768107448107448
1223,1.749010989010989
1224,1.7175579975579975
1225,1.7467643467643468
1226,1.7815873015873016
1227,1.7332844932844933
1228,1.684981684981685
1229,1.7265445665445665
1230,1.7737240537240535
1231,1.7478876678876678
1232,1.7141880341880342
1233,1.749010989010989
1234,1.7984371184371184
1235,1.757997557997558
1236,1.7085714285714286
1237,1.75013431013431
1238,1.7984371184371184
1239,1.7411477411477412
1240,1.713064713064713
1241,1.749010989010989
1242,1.7883272283272282
1243,1.7467643467643468
1244,1.7175579975579975
1245,1.7647374847374848
1246,1.783833943833944
1247,1.7433943833943837
1248,1.6962148962148962
1249,1.749010989010989
1250,1.800683760683761
1251,1.7535042735042734
1252,1.7276678876678877
1253,1.7602442002442005
1254,1.8063003663003665
1255,1.7546275946275949
1256,1.7198046398046398
1257,1.7546275946275949
1258,1.800683760683761
1259,1.7546275946275949
1260,1.705201465201465
1261,1.7624908424908423
1262,1.7905738705738703
1263,1.7557509157509157
1264,1.7276678876678877
1265,1.775970695970696
1266,1.8186568986568987
1267,1.7894505494505497
1268,1.7928205128205128
1269,1.8355067155067155
1270,1.855726495726496
1271,1.8141636141636144
1272,1.7602442002442005
1273,1.7995604395604397
1274,1.81978021978022
1275,1.757997557997558
1276,1.713064713064713
1277,1.7557509157509157
1278,1.7872039072039072
1279,1.72991452991453
1280,1.7007081807081808
1281,1.7636141636141636
1282,1.7939438339438338
1283,1.7467643467643468
1284,1.7186813186813186
1285,1.7535042735042734
1286,1.784957264957265
1287,1.7141880341880342
1288,1.683858363858364
1289,1.848986568986569
1290,2.194969474969475
1291,2.658901098901099
1292,3.0498168498168496
1293,3.23965811965812
1294,2.9824175824175825
1295,2.503882783882784
1296,2.05006105006105
1297,1.8568498168498169
1298,1.7995604395604397
1299,1.7175579975579975
1300,1.6625152625152626
1301,1.693968253968254
1302,1.7096947496947497
1303,1.638925518925519
1304,1.6108424908424908
1305,1.6524053724053724
1306,1.6804884004884004
1307,1.6231990231990232
1308,1.6164590964590964
1309,1.6512820512820512
1310,1.6681318681318682
1311,1.6164590964590964
1312,1.6085958485958487
1313,1.6512820512820512
1314,1.6872283272283273
1315,1.6243223443223442
1316,1.613089133089133
1317,1.6524053724053724
1318,1.683858363858364
1319,1.6501587301587302
1320,1.6175824175824176
1321,1.6726251526251523
1322,1.7175579975579975
1323,1.6613919413919414
1324,1.6557753357753358
1325,1.6973382173382174
1326,1.7411477411477412
1327,1.678241758241758
1328,1.678241758241758
1329,1.722051282051282
1330,1.7624908424908423
1331,1.7153113553113553
1332,1.6973382173382174
1333,1.75013431013431
1334,1.7872039072039072
1335,1.7467643467643468
1336,1.7344078144078143
1337,1.795067155067155
1338,1.8242735042735043
1339,1.800683760683761
1340,1.784957264957265
1341,1.866959706959707
1342,1.8927960927960927
1343,1.8624664224664225
1344,1.868083028083028
1345,1.935482295482296
1346,1.987155067155067
1347,1.9422222222222223
1348,1.9388522588522588
1349,1.996141636141636
1350,2.0084981684981686
1351,1.9467155067155064
1352,1.8984126984126983
1353,1.911892551892552
1354,1.893919413919414
1355,1.7905738705738703
1356,1.738901098901099
1357,1.7523809523809524
1358,1.7546275946275949
1359,1.658021978021978
1360,1.6299389499389498
1361,1.6546520146520147
1362,1.665885225885226
1363,1.6029792429792429
1364,1.5816361416361415
1365,1.6288156288156288
1366,1.6467887667887668
1367,1.5951159951159952
1368,1.5838827838827838
1369,1.6265689865689863
1370,1.6546520146520147
1371,1.5996092796092796
1372,1.585006105006105
1373,1.6434188034188033
1374,1.658021978021978
1375,1.613089133089133
1376,1.5996092796092796
1377,1.6524053724053724
1378,1.6726251526251523
1379,1.6142124542124543
1380,1.6063492063492064
1381,1.658021978021978
1382,1.6793650793650794
1383,1.61982905982906
1384,1.620952380952381
1385,1.6602686202686203
1386,1.6883516483516483
1387,1.6276923076923078
1388,1.61982905982906
1389,1.6905982905982906
1390,1.7063247863247863
1391,1.659145299145299
1392,1.64004884004884
1393,1.702954822954823
1394,1.722051282051282
1395,1.702954822954823
1396,1.6883516483516483
1397,1.768107448107448
1398,1.7804639804639804
1399,1.722051282051282
1400,1.6816117216117217
1401,1.6995848595848595
1402,1.6928449328449329
1403,1.6243223443223442
1404,1.6333089133089134
1405,1.704078144078144
1406,1.7209279609279609
1407,1.6625152625152626
1408,1.638925518925519
1409,1.6995848595848595
1410,1.6995848595848595
1411,1.6613919413919414
1412,1.6524053724053724
1413,1.6950915750915752
1414,1.722051282051282
1415,1.6703785103785105
1416,1.658021978021978
1417,1.7366544566544566
1418,1.722051282051282
1419,1.6984615384615385
1420,1.8871794871794871
1421,2.324151404151404
1422,2.833015873015873
1423,3.1554090354090354
1424,3.185738705738706
1425,2.888058608058608
1426,2.387057387057387
1427,1.9163858363858364
1428,1.722051282051282
1429,1.7164346764346765
1430,1.686105006105006
1431,1.6187057387057386
1432,1.5805128205128205
1433,1.6422954822954825
1434,1.6220757020757022
1435,1.568156288156288
1436,1.5614163614163614
1437,1.6231990231990232
1438,1.6243223443223442
1439,1.558046398046398
1440,1.5524297924297925
1441,1.632185592185592
1442,1.6231990231990232
1443,1.576019536019536
1444,1.5782661782661782
1445,1.6411721611721612
1446,1.6378021978021975
1447,1.593992673992674
1448,1.5872527472527471
1449,1.6546520146520147
1450,1.6512820512820512
1451,1.6029792429792429
1452,1.615335775335775
1453,1.6726251526251523
1454,1.683858363858364
1455,1.6175824175824176
1456,1.6411721611721612
1457,1.7007081807081808
1458,1.7007081807081808
1459,1.6467887667887668
1460,1.6692551892551892
1461,1.7254212454212454
1462,1.7433943833943837
1463,1.6816117216117217
1464,1.705201465201465
1465,1.7815873015873016
1466,1.7860805860805862
1467,1.7512576312576311
1468,1.7602442002442005
1469,1.85010989010989
1470,1.8546031746031744
1471,1.8265201465201464
1472,1.8512332112332115
1473,1.941098901098901
1474,1.947838827838828
1475,1.9163858363858364
1476,1.932112332112332
1477,1.9972649572649568
1478,1.983785103785104
1479,1.914139194139194
1480,1.881562881562881
1481,1.902905982905983
1482,1.847863247863248
1483,1.7456410256410255
1484,1.7254212454212454
1485,1.7411477411477412
1486,1.7007081807081808
1487,1.6299389499389498
1488,1.6074725274725274
1489,1.6647619047619049
1490,1.6411721611721612
1491,1.574896214896215
1492,1.5894993894993894
1493,1.631062271062271
1494,1.631062271062271
1495,1.5782661782661782
1496,1.586129426129426
1497,1.6557753357753358
1498,1.638925518925519
1499,1.5838827838827838
1500,1.604102564102564
1501,1.658021978021978
1502,1.6501587301587302
1503,1.5838827838827838
1504,1.6029792429792429
1505,1.6681318681318682
1506,1.6501587301587302
1507,1.5973626373626373
1508,1.6175824175824176
1509,1.6715018315018315
1510,1.6602686202686203
1511,1.6097191697191695
1512,1.61982905982906
1513,1.6872283272283273
1514,1.6647619047619049
1515,1.6187057387057386
1516,1.6220757020757022
1517,1.7007081807081808
1518,1.675995115995116
1519,1.6108424908424908
1520,1.6333089133089134
1521,1.7007081807081808
1522,1.678241758241758
1523,1.6299389499389498
1524,1.6535286935286937
1525,1.7018315018315018
1526,1.702954822954823
1527,1.632185592185592
1528,1.6625152625152626
1529,1.7231746031746031
1530,1.7018315018315018
1531,1.6512820512820512
1532,1.6681318681318682
1533,1.7265445665445665
1534,1.702954822954823
1535,1.6467887667887668
1536,1.6737484737484738
1537,1.731037851037851
1538,1.710818070818071
1539,1.6490354090354091
1540,1.686105006105006
1541,1.7321611721611725
1542,1.7231746031746031
1543,1.6602686202686203
1544,1.6816117216117217
1545,1.7366544566544566
1546,1.7254212454212454
1547,1.656898656898657
1548,1.686105006105006
1549,1.7422710622710622
1550,1.7276678876678877
1551,1.6613919413919414
1552,1.6950915750915752
1553,1.7557509157509157
1554,1.7287912087912087
1555,1.675995115995116
1556,1.6950915750915752
1557,1.768107448107448
1558,1.7411477411477412
1559,1.686105006105006
1560,1.6995848595848595
1561,1.7647374847374848
1562,1.7445177045177045
1563,1.6816117216117217
1564,1.7231746031746031
1565,1.7703540903540904
1566,1.7658608058608058
1567,1.6984615384615385
1568,1.7254212454212454
1569,1.775970695970696
1570,1.7535042735042734
1571,1.7096947496947497
1572,1.7276678876678877
1573,1.7883272283272282
1574,1.7737240537240535
1575,1.7242979242979244
1576,1.738901098901099
1577,1.8063003663003665
1578,1.775970695970696
1579,1.7254212454212454
1580,1.7433943833943837
1581,1.804053724053724
1582,1.7827106227106226
1583,1.7164346764346765
1584,1.757997557997558
1585,1.7984371184371184
1586,1.7905738705738703
1587,1.7242979242979244
1588,1.75013431013431
1589,1.802930402930403
1590,1.7804639804639804
1591,1.7198046398046398
1592,1.7445177045177045
1593,1.8063003663003665
1594,1.7748473748473748
1595,1.7242979242979244
1596,1.7456410256410255
1597,1.8051770451770448
1598,1.7860805860805862
1599,1.7164346764346765
1600,1.757997557997558
1601,1.811916971916972
1602,1.7782173382173383
1603,1.7276678876678877
1604,1.756874236874237
1605,1.800683760683761
1606,1.7860805860805862
1607,1.7141880341880342
1608,1.7456410256410255
1609,1.804053724053724
1610,1.777094017094017
1611,1.722051282051282
1612,1.7557509157509157
1613,1.800683760683761
1614,1.7782173382173383
1615,1.7355311355311356
1616,1.7433943833943837
1617,1.8085470085470088
1618,1.7872039072039072
1619,1.7198046398046398
1620,1.7669841269841269
1621,1.8096703296703296
1622,1.7894505494505497
1623,1.7276678876678877
1624,1.7456410256410255
1625,1.802930402930403
1626,1.7737240537240535
1627,1.7332844932844933
1628,1.757997557997558
1629,1.8074236874236875
1630,1.7883272283272282
1631,1.722051282051282
1632,1.7445177045177045
1633,1.802930402930403
1634,1.7714774114774114
1635,1.722051282051282
1636,1.7546275946275949
1637,1.8063003663003665
1638,1.7737240537240535
1639,1.7254212454212454
1640,1.7535042735042734
1641,1.8096703296703296
1642,1.7883272283272282
1643,1.7456410256410255
1644,1.775970695970696
1645,1.8287667887667889
1646,1.8152869352869352
1647,1.7647374847374848
1648,1.8242735042735043
1649,1.911892551892552
1650,1.886056166056166
1651,1.8343833943833945
1652,1.842246642246642
1653,1.891672771672772
1654,1.8546031746031744
1655,1.7905738705738703
1656,1.784957264957265
1657,1.8242735042735043
1658,1.7928205128205128
1659,1.7153113553113553
1660,1.7478876678876678
1661,1.81978021978022
1662,1.784957264957265
1663,1.7198046398046398
1664,1.749010989010989
1665,1.7782173382173383
1666,1.7512576312576311
1667,1.7186813186813186
1668,1.7074481074481074
1669,1.7557509157509157
1670,1.7928205128205128
1671,1.9826617826617827
1672,2.453333333333333
1673,2.9857875457875456
1674,3.2374114774114773
1675,3.0644200244200244
1676,2.691477411477412
1677,2.276971916971917
1678,1.920879120879121
1679,1.731037851037851
1680,1.7085714285714286
1681,1.7535042735042734
1682,1.686105006105006
1683,1.6097191697191695
1684,1.6265689865689863
1685,1.658021978021978
1686,1.632185592185592
1687,1.573772893772894
1688,1.5996092796092796
1689,1.667008547008547
1690,1.631062271062271
1691,1.5715262515262516
1692,1.613089133089133
1693,1.658021978021978
1694,1.6411721611721612
1695,1.5906227106227109
1696,1.6220757020757022
1697,1.6726251526251523
1698,1.6467887667887668
1699,1.5962393162393165
1700,1.61982905982906
1701,1.6950915750915752
1702,1.656898656898657
1703,1.6142124542124543
1704,1.6333089133089134
1705,1.6928449328449329
1706,1.6804884004884004
1707,1.632185592185592
1708,1.6681318681318682
1709,1.74002442002442
1710,1.6962148962148962
1711,1.6535286935286937
1712,1.686105006105006
1713,1.7523809523809524
1714,1.7186813186813186
1715,1.6692551892551892
1716,1.7153113553113553
1717,1.7782173382173383
1718,1.7692307692307692
1719,1.710818070818071
1720,1.7636141636141636
1721,1.8186568986568987
1722,1.813040293040293
1723,1.7827106227106226
1724,1.81978021978022
1725,1.9096459096459093
1726,1.886056166056166
1727,1.8635897435897435
1728,1.9107692307692308
1729,1.9747985347985348
1730,1.963565323565324
1731,1.9186324786324789
1732,1.9624420024420024
1733,1.993894993894994
1734,1.932112332112332
1735,1.8635897435897435
1736,1.848986568986569
1737,1.8534798534798536
1738,1.7905738705738703
1739,1.6950915750915752
1740,1.704078144078144
1741,1.7411477411477412
1742,1.6793650793650794
1743,1.6142124542124543
1744,1.636678876678877
1745,1.684981684981685
1746,1.6422954822954825
1747,1.5883760683760684
1748,1.6276923076923078
1749,1.6681318681318682
1750,1.6299389499389498
1751,1.5906227106227109
1752,1.631062271062271
1753,1.6748717948717948
1754,1.6445421245421246
1755,1.5838827838827838
1756,1.6254456654456657
1757,1.6950915750915752
1758,1.6524053724053724
1759,1.5996092796092796
1760,1.6378021978021975
1761,1.6973382173382174
1762,1.6546520146520147
1763,1.6052258852258852
1764,1.6546520146520147
1765,1.6894749694749696
1766,1.665885225885226
1767,1.620952380952381
1768,1.6501587301587302
1769,1.7063247863247863
1770,1.6681318681318682
1771,1.6108424908424908
1772,1.659145299145299
1773,1.7164346764346765
1774,1.678241758241758
1775,1.64004884004884
1776,1.6557753357753358
1777,1.7153113553113553
1778,1.675995115995116
1779,1.6299389499389498
1780,1.6681318681318682
1781,1.7063247863247863
1782,1.678241758241758
1783,1.6422954822954825
1784,1.6872283272283273
1785,1.722051282051282
1786,1.6917216117216116
1787,1.6411721611721612
1788,1.675995115995116
1789,1.737777777777778
1790,1.6984615384615385
1791,1.6456654456654456
1792,1.6950915750915752
1793,1.731037851037851
1794,1.7096947496947497
1795,1.659145299145299
1796,1.686105006105006
1797,1.7254212454212454
1798,1.7063247863247863
1799,1.6692551892551892
1800,1.6995848595848595
1801,1.756874236874237
1802,1.7276678876678877
1803,1.6715018315018315
1804,1.6984615384615385
1805,1.7557509157509157
1806,1.713064713064713
1807,1.678241758241758
1808,1.7186813186813186
1809,1.7591208791208792
1810,1.731037851037851
1811,1.7007081807081808
1812,1.7198046398046398
1813,1.7658608058608058
1814,1.711941391941392
1815,1.6827350427350427
1816,1.710818070818071
1817,1.7726007326007327
1818,1.7344078144078143
1819,1.684981684981685
1820,1.7433943833943837
1821,1.7737240537240535
1822,1.7344078144078143
1823,1.6995848595848595
1824,1.7231746031746031
1825,1.768107448107448
1826,1.7456410256410255
1827,1.684981684981685
1828,1.710818070818071
1829,1.7591208791208792
1830,1.7276678876678877
1831,1.705201465201465
1832,1.7332844932844933
1833,1.7782173382173383
1834,1.7433943833943837
1835,1.686105006105006
1836,1.7355311355311356
1837,1.7714774114774114
1838,1.7321611721611725
1839,1.693968253968254
1840,1.7411477411477412
1841,1.7669841269841269
1842,1.7332844932844933
1843,1.6883516483516483
1844,1.731037851037851
1845,1.7872039072039072
1846,1.7433943833943837
1847,1.6962148962148962
1848,1.7535042735042734
1849,1.7928205128205128
1850,1.7433943833943837
1851,1.710818070818071
1852,1.7602442002442005
1853,1.7860805860805862
1854,1.7546275946275949
1855,1.7254212454212454
1856,1.7591208791208792
1857,1.802930402930403
1858,1.7624908424908423
1859,1.7209279609279609
1860,1.7714774114774114
1861,1.7905738705738703
1862,1.757997557997558
1863,1.7153113553113553
1864,1.7591208791208792
1865,1.8141636141636144
1866,1.7860805860805862
1867,1.749010989010989
1868,1.8186568986568987
1869,1.877069597069597
1870,1.8523565323565323
1871,1.8388766788766788
1872,1.87931623931624
1873,1.8927960927960927
1874,1.8534798534798536
1875,1.7939438339438338
1876,1.8186568986568987
1877,1.8388766788766788
1878,1.7658608058608058
1879,1.7287912087912087
1880,1.7636141636141636
1881,1.802930402930403
1882,1.7456410256410255
1883,1.705201465201465
1884,1.749010989010989
1885,1.7804639804639804
1886,1.7557509157509157
1887,1.7085714285714286
1888,1.7557509157509157
1889,1.7883272283272282
1890,1.6984615384615385
1891,1.6984615384615385
1892,1.9388522588522588
1893,2.374700854700855
1894,2.8532356532356533
1895,3.1643956043956045
1896,3.199218559218559
1897,2.8633455433455435
1898,2.362344322344322
1899,1.9309890109890109
1900,1.8018070818070813
1901,1.777094017094017
1902,1.710818070818071
1903,1.6557753357753358
1904,1.6681318681318682
1905,1.7018315018315018
1906,1.6535286935286937
1907,1.5906227106227109
1908,1.6344322344322344
1909,1.6748717948717948
1910,1.632185592185592
1911,1.5906227106227109
1912,1.6355555555555557
1913,1.6816117216117217
1914,1.6344322344322344
1915,1.5917460317460317
1916,1.64004884004884
1917,1.684981684981685
1918,1.6467887667887668
1919,1.5984859584859583
1920,1.6512820512820512
1921,1.7085714285714286
1922,1.659145299145299
1923,1.6220757020757022
1924,1.675995115995116
1925,1.7074481074481074
1926,1.6827350427350427
1927,1.6355555555555557
1928,1.6962148962148962
1929,1.7254212454212454
1930,1.683858363858364
1931,1.6692551892551892
1932,1.7063247863247863
1933,1.7456410256410255
1934,1.722051282051282
1935,1.6883516483516483
1936,1.7344078144078143
1937,1.784957264957265
1938,1.7546275946275949
1939,1.7175579975579975
1940,1.777094017094017
1941,1.823150183150183
1942,1.7905738705738703
1943,1.7815873015873016
1944,1.8355067155067155
1945,1.891672771672772
1946,1.8624664224664225
1947,1.8444932844932844
1948,1.9287423687423688
1949,1.9826617826617827
1950,1.9388522588522588
1951,1.9287423687423688
1952,1.9815384615384608
1953,1.996141636141636
1954,1.932112332112332
1955,1.8871794871794871
1956,1.883809523809524
1957,1.8781929181929184
1958,1.7883272283272282
1959,1.72991452991453
1960,1.75013431013431
1961,1.7467643467643468
1962,1.6883516483516483
1963,1.6276923076923078
1964,1.6602686202686203
1965,1.686105006105006
1966,1.64004884004884
1967,1.592869352869353
1968,1.6422954822954825
1969,1.6726251526251523
1970,1.615335775335775
1971,1.5984859584859583
1972,1.6535286935286937
1973,1.665885225885226
1974,1.6220757020757022
1975,1.6142124542124543
1976,1.658021978021978
1977,1.6748717948717948
1978,1.6299389499389498
1979,1.6164590964590964
1980,1.659145299145299
1981,1.6962148962148962
1982,1.6524053724053724
1983,1.6175824175824176
1984,1.6748717948717948
1985,1.705201465201465
1986,1.6422954822954825
1987,1.6355555555555557
1988,1.6726251526251523
1989,1.7063247863247863
1990,1.647912087912088
1991,1.6355555555555557
1992,1.686105006105006
1993,1.7018315018315018
1994,1.6602686202686203
1995,1.638925518925519
1996,1.7063247863247863
1997,1.7186813186813186
1998,1.677118437118437
1999,1.6681318681318682
2000,1.7209279609279609
2001,1.7445177045177045
2002,1.7242979242979244
2003,1.710818070818071
2004,1.7726007326007327
2005,1.8096703296703296
2006,1.7445177045177045
2007,1.6928449328449329
2008,1.7209279609279609
2009,1.7018315018315018
2010,1.6501587301587302
2011,1.647912087912088
2012,1.7198046398046398
2013,1.7254212454212454
2014,1.6816117216117217
2015,1.6535286935286937
2016,1.713064713064713
2017,1.7164346764346765
2018,1.6726251526251523
2019,1.6456654456654456
2020,1.7141880341880342
2021,1.7231746031746031
2022,1.677118437118437
2023,1.6804884004884004
2024,1.7344078144078143
2025,1.7467643467643468
2026,1.72991452991453
2027,1.913015873015873
2028,2.3735775335775338
2029,2.875702075702076
2030,3.178998778998779
2031,3.189108669108669
2032,2.875702075702076
2033,2.362344322344322
2034,1.932112332112332
2035,1.7254212454212454
2036,1.7254212454212454
2037,1.6883516483516483
2038,1.611965811965812
2039,1.5951159951159952
2040,1.638925518925519
2041,1.6243223443223442
2042,1.568156288156288
2043,1.567032967032967
2044,1.6175824175824176
2045,1.6243223443223442
2046,1.576019536019536
2047,1.5704029304029303
2048,1.6288156288156288
2049,1.6288156288156288
2050,1.5793894993894997
2051,1.5704029304029303
2052,1.636678876678877
2053,1.6490354090354091
2054,1.5906227106227109
2055,1.5883760683760684
2056,1.6647619047619049
2057,1.6535286935286937
2058,1.611965811965812
2059,1.6029792429792429
2060,1.6804884004884004
2061,1.6793650793650794
2062,1.6422954822954825
2063,1.638925518925519
2064,1.6917216117216116
2065,1.702954822954823
2066,1.659145299145299
2067,1.6524053724053724
2068,1.7242979242979244
2069,1.737777777777778
2070,1.6883516483516483
2071,1.6917216117216116
2072,1.7669841269841269
2073,1.7905738705738703
2074,1.7366544566544566
2075,1.7703540903540904
2076,1.8467399267399267
2077,1.8613431013431008
2078,1.820903540903541
2079,1.84
2080,1.9163858363858364
2081,1.9512087912087912
2082,1.9051526251526247
2083,1.9231257631257632
2084,1.9995115995115995
2085,1.9781684981684984
2086,1.8972893772893773
2087,1.875946275946276
2088,1.8883028083028084
2089,1.855726495726496
2090,1.7366544566544566
2091,1.7141880341880342
2092,1.731037851037851
2093,1.704078144078144
2094,1.6243223443223442
2095,1.6018559218559218
2096,1.64004884004884
2097,1.6467887667887668
2098,1.573772893772894
2099,1.567032967032967
