Index,II
0,1.6905982905982906
1,1.6917216117216116
2,1.677118437118437
3,1.683858363858364
4,1.6950915750915752
5,1.6872283272283273
6,1.6872283272283273
7,1.6950915750915752
8,1.710818070818071
9,1.686105006105006
10,1.6928449328449329
11,1.6894749694749696
12,1.7063247863247863
13,1.6950915750915752
14,1.6962148962148962
15,1.7074481074481074
16,1.702954822954823
17,1.7141880341880342
18,1.7063247863247863
19,1.704078144078144
20,1.7175579975579975
21,1.7018315018315018
22,1.6917216117216116
23,1.705201465201465
24,1.711941391941392
25,1.710818070818071
26,1.6984615384615385
27,1.7153113553113553
28,1.7265445665445665
29,1.7198046398046398
30,1.713064713064713
31,1.7198046398046398
32,1.7198046398046398
33,1.7153113553113553
34,1.711941391941392
35,1.7198046398046398
36,1.7242979242979244
37,1.7209279609279609
38,1.713064713064713
39,1.722051282051282
40,1.738901098901099
41,1.7265445665445665
42,1.722051282051282
43,1.7186813186813186
44,1.7366544566544566
45,1.7186813186813186
46,1.7242979242979244
47,1.7265445665445665
48,1.74002442002442
49,1.7344078144078143
50,1.7231746031746031
51,1.72991452991453
52,1.7344078144078143
53,1.7366544566544566
54,1.731037851037851
55,1.7445177045177045
56,1.731037851037851
57,1.731037851037851
58,1.713064713064713
59,1.731037851037851
60,1.737777777777778
61,1.7321611721611725
62,1.731037851037851
63,1.7355311355311356
64,1.7478876678876678
65,1.7355311355311356
66,1.72991452991453
67,1.7422710622710622
68,1.7433943833943837
69,1.7535042735042734
70,1.72991452991453
71,1.7478876678876678
72,1.75013431013431
73,1.737777777777778
74,1.72991452991453
75,1.7456410256410255
76,1.7411477411477412
77,1.7276678876678877
78,1.731037851037851
79,1.7332844932844933
80,1.7422710622710622
81,1.7344078144078143
82,1.7153113553113553
83,1.7287912087912087
84,1.7141880341880342
85,1.7242979242979244
86,1.7141880341880342
87,1.7198046398046398
88,1.7242979242979244
89,1.713064713064713
90,1.6950915750915752
91,1.7141880341880342
92,1.713064713064713
93,1.7164346764346765
94,1.7276678876678877
95,1.7242979242979244
96,1.7287912087912087
97,1.722051282051282
98,1.693968253968254
99,1.710818070818071
100,1.7141880341880342
101,1.7186813186813186
102,1.6995848595848595
103,1.7321611721611725
104,1.7557509157509157
105,1.7523809523809524
106,1.7748473748473748
107,1.7973137973137974
108,1.8085470085470088
109,1.8085470085470088
110,1.7995604395604397
111,1.811916971916972
112,1.8085470085470088
113,1.7782173382173383
114,1.7344078144078143
115,1.7332844932844933
116,1.7153113553113553
117,1.722051282051282
118,1.722051282051282
119,1.7242979242979244
120,1.72991452991453
121,1.704078144078144
122,1.7007081807081808
123,1.713064713064713
124,1.7198046398046398
125,1.7164346764346765
126,1.713064713064713
127,1.6950915750915752
128,1.6546520146520147
129,1.6299389499389498
130,1.823150183150183
131,2.2612454212454214
132,2.801562881562881
133,3.143052503052503
134,3.1003663003663005
135,2.7105738705738704
136,2.267985347985348
137,1.891672771672772
138,1.7523809523809524
139,1.711941391941392
140,1.686105006105006
141,1.6434188034188033
142,1.631062271062271
143,1.6265689865689863
144,1.6299389499389498
145,1.6175824175824176
146,1.6018559218559218
147,1.620952380952381
148,1.6265689865689863
149,1.592869352869353
150,1.593992673992674
151,1.6018559218559218
152,1.6007326007326008
153,1.604102564102564
154,1.5973626373626373
155,1.6175824175824176
156,1.6344322344322344
157,1.6254456654456657
158,1.6097191697191695
159,1.615335775335775
160,1.6333089133089134
161,1.620952380952381
162,1.6355555555555557
163,1.6456654456654456
164,1.64004884004884
165,1.6445421245421246
166,1.6411721611721612
167,1.6411721611721612
168,1.6501587301587302
169,1.632185592185592
170,1.6445421245421246
171,1.6613919413919414
172,1.6647619047619049
173,1.636678876678877
174,1.6467887667887668
175,1.6681318681318682
176,1.6681318681318682
177,1.6681318681318682
178,1.6737484737484738
179,1.6883516483516483
180,1.713064713064713
181,1.6928449328449329
182,1.722051282051282
183,1.7456410256410255
184,1.7737240537240535
185,1.779340659340659
186,1.8152869352869352
187,1.8546031746031744
188,1.8781929181929184
189,1.914139194139194
190,1.9242490842490845
191,1.963565323565324
192,1.964688644688645
193,1.9512087912087912
194,1.9388522588522588
195,1.9006593406593408
196,1.8725763125763129
197,1.81978021978022
198,1.7860805860805862
199,1.7703540903540904
200,1.7433943833943837
201,1.7231746031746031
202,1.6950915750915752
203,1.693968253968254
204,1.6984615384615385
205,1.6715018315018315
206,1.6703785103785105
207,1.6928449328449329
208,1.6872283272283273
209,1.684981684981685
210,1.6793650793650794
211,1.6894749694749696
212,1.6872283272283273
213,1.683858363858364
214,1.6692551892551892
215,1.686105006105006
216,1.6883516483516483
217,1.678241758241758
218,1.686105006105006
219,1.686105006105006
220,1.7007081807081808
221,1.6816117216117217
222,1.686105006105006
223,1.7018315018315018
224,1.7096947496947497
225,1.6883516483516483
226,1.6872283272283273
227,1.7085714285714286
228,1.6950915750915752
229,1.702954822954823
230,1.6950915750915752
231,1.711941391941392
232,1.722051282051282
233,1.7007081807081808
234,1.6984615384615385
235,1.7265445665445665
236,1.7164346764346765
237,1.7018315018315018
238,1.713064713064713
239,1.7096947496947497
240,1.7198046398046398
241,1.7007081807081808
242,1.7153113553113553
243,1.7254212454212454
244,1.7198046398046398
245,1.7276678876678877
246,1.72991452991453
247,1.7355311355311356
248,1.7433943833943837
249,1.737777777777778
250,1.75013431013431
251,1.7512576312576311
252,1.7557509157509157
253,1.7512576312576311
254,1.7456410256410255
255,1.777094017094017
256,1.756874236874237
257,1.7613675213675213
258,1.757997557997558
259,1.7602442002442005
260,1.7748473748473748
261,1.7467643467643468
262,1.757997557997558
263,1.7827106227106226
264,1.7703540903540904
265,1.7726007326007327
266,1.775970695970696
267,1.8063003663003665
268,1.784957264957265
269,1.7872039072039072
270,1.7995604395604397
271,1.7939438339438338
272,1.796190476190476
273,1.7860805860805862
274,1.784957264957265
275,1.8096703296703296
276,1.7984371184371184
277,1.7905738705738703
278,1.7905738705738703
279,1.811916971916972
280,1.8085470085470088
281,1.7860805860805862
282,1.7916971916971918
283,1.811916971916972
284,1.7984371184371184
285,1.7928205128205128
286,1.7995604395604397
287,1.7995604395604397
288,1.8085470085470088
289,1.7916971916971918
290,1.7905738705738703
291,1.8085470085470088
292,1.7984371184371184
293,1.7995604395604397
294,1.7916971916971918
295,1.811916971916972
296,1.796190476190476
297,1.7860805860805862
298,1.7995604395604397
299,1.796190476190476
300,1.7905738705738703
301,1.7939438339438338
302,1.7894505494505497
303,1.8051770451770448
304,1.7916971916971918
305,1.7815873015873016
306,1.8018070818070813
307,1.8074236874236875
308,1.8175335775335768
309,1.8164102564102564
310,1.8377533577533576
311,1.8647130647130647
312,1.8703296703296703
313,1.8613431013431008
314,1.86021978021978
315,1.8736996336996337
316,1.8523565323565323
317,1.822026862026862
318,1.8141636141636144
319,1.7928205128205128
320,1.7916971916971918
321,1.7737240537240535
322,1.7692307692307692
323,1.7692307692307692
324,1.7714774114774114
325,1.7546275946275949
326,1.7591208791208792
327,1.7804639804639804
328,1.756874236874237
329,1.7669841269841269
330,1.7692307692307692
331,1.7433943833943837
332,1.7164346764346765
333,1.8467399267399267
334,2.216312576312576
335,2.7184371184371185
336,3.1655189255189256
337,3.304810744810745
338,3.016117216117216
339,2.5005128205128204
340,2.035457875457876
341,1.8085470085470088
342,1.74002442002442
343,1.7231746031746031
344,1.6827350427350427
345,1.6613919413919414
346,1.6512820512820512
347,1.6445421245421246
348,1.6411721611721612
349,1.615335775335775
350,1.6299389499389498
351,1.6187057387057386
352,1.6164590964590964
353,1.6108424908424908
354,1.6243223443223442
355,1.61982905982906
356,1.611965811965812
357,1.6187057387057386
358,1.6187057387057386
359,1.6220757020757022
360,1.6265689865689863
361,1.6074725274725274
362,1.6299389499389498
363,1.6288156288156288
364,1.6288156288156288
365,1.613089133089133
366,1.6254456654456657
367,1.647912087912088
368,1.6344322344322344
369,1.6187057387057386
370,1.6378021978021975
371,1.6445421245421246
372,1.632185592185592
373,1.6378021978021975
374,1.64004884004884
375,1.659145299145299
376,1.638925518925519
377,1.6524053724053724
378,1.659145299145299
379,1.6703785103785105
380,1.6681318681318682
381,1.6501587301587302
382,1.6715018315018315
383,1.6905982905982906
384,1.6905982905982906
385,1.7007081807081808
386,1.710818070818071
387,1.74002442002442
388,1.7613675213675213
389,1.7624908424908423
390,1.8152869352869352
391,1.8388766788766788
392,1.8736996336996337
393,1.8972893772893773
394,1.9186324786324789
395,1.9388522588522588
396,1.947838827838828
397,1.920879120879121
398,1.9096459096459093
399,1.886056166056166
400,1.8242735042735043
401,1.7939438339438338
402,1.7804639804639804
403,1.7636141636141636
404,1.7287912087912087
405,1.704078144078144
406,1.7063247863247863
407,1.7096947496947497
408,1.683858363858364
409,1.6816117216117217
410,1.6905982905982906
411,1.683858363858364
412,1.6793650793650794
413,1.6715018315018315
414,1.6917216117216116
415,1.6894749694749696
416,1.6872283272283273
417,1.678241758241758
418,1.7007081807081808
419,1.7007081807081808
420,1.686105006105006
421,1.6905982905982906
422,1.6917216117216116
423,1.705201465201465
424,1.6995848595848595
425,1.686105006105006
426,1.702954822954823
427,1.6950915750915752
428,1.6804884004884004
429,1.6917216117216116
430,1.7063247863247863
431,1.6950915750915752
432,1.6995848595848595
433,1.6995848595848595
434,1.6950915750915752
435,1.711941391941392
436,1.6984615384615385
437,1.6883516483516483
438,1.7063247863247863
439,1.7164346764346765
440,1.6984615384615385
441,1.702954822954823
442,1.7209279609279609
443,1.713064713064713
444,1.7063247863247863
445,1.7074481074481074
446,1.7254212454212454
447,1.7164346764346765
448,1.705201465201465
449,1.7096947496947497
450,1.7209279609279609
451,1.7344078144078143
452,1.722051282051282
453,1.705201465201465
454,1.7276678876678877
455,1.7231746031746031
456,1.7164346764346765
457,1.7287912087912087
458,1.74002442002442
459,1.7366544566544566
460,1.7287912087912087
461,1.7164346764346765
462,1.7433943833943837
463,1.72991452991453
464,1.7332844932844933
465,1.7265445665445665
466,1.7321611721611725
467,1.7523809523809524
468,1.7355311355311356
469,1.7344078144078143
470,1.7344078144078143
471,1.7422710622710622
472,1.7355311355311356
473,1.7231746031746031
474,1.737777777777778
475,1.74002442002442
476,1.74002442002442
477,1.72991452991453
478,1.7366544566544566
479,1.7411477411477412
480,1.7321611721611725
481,1.7287912087912087
482,1.7456410256410255
483,1.7422710622710622
484,1.737777777777778
485,1.75013431013431
486,1.756874236874237
487,1.75013431013431
488,1.7512576312576311
489,1.74002442002442
490,1.7512576312576311
491,1.7602442002442005
492,1.75013431013431
493,1.7445177045177045
494,1.75013431013431
495,1.7546275946275949
496,1.7535042735042734
497,1.74002442002442
498,1.756874236874237
499,1.7602442002442005
500,1.7422710622710622
501,1.7445177045177045
502,1.7703540903540904
503,1.7658608058608058
504,1.7512576312576311
505,1.7411477411477412
506,1.7591208791208792
507,1.7636141636141636
508,1.7355311355311356
509,1.7411477411477412
510,1.7624908424908423
511,1.7557509157509157
512,1.7546275946275949
513,1.7512576312576311
514,1.7557509157509157
515,1.757997557997558
516,1.756874236874237
517,1.7445177045177045
518,1.7602442002442005
519,1.7692307692307692
520,1.7512576312576311
521,1.768107448107448
522,1.7827106227106226
523,1.783833943833944
524,1.8063003663003665
525,1.820903540903541
526,1.8444932844932844
527,1.848986568986569
528,1.820903540903541
529,1.8265201465201464
530,1.831013431013431
531,1.8096703296703296
532,1.7883272283272282
533,1.7669841269841269
534,1.7467643467643468
535,1.7523809523809524
536,1.749010989010989
537,1.7433943833943837
538,1.7422710622710622
539,1.738901098901099
540,1.7355311355311356
541,1.7445177045177045
542,1.7433943833943837
543,1.7445177045177045
544,1.75013431013431
545,1.7366544566544566
546,1.6984615384615385
547,1.783833943833944
548,2.063540903540904
549,2.5364590964590965
550,3.0183638583638586
551,3.276727716727717
552,3.116092796092796
553,2.643174603174604
554,2.16014652014652
555,1.8703296703296703
556,1.74002442002442
557,1.7063247863247863
558,1.6928449328449329
559,1.658021978021978
560,1.64004884004884
561,1.6276923076923078
562,1.6265689865689863
563,1.6097191697191695
564,1.5827594627594628
565,1.592869352869353
566,1.5984859584859583
567,1.6074725274725274
568,1.5805128205128205
569,1.592869352869353
570,1.5996092796092796
571,1.5962393162393165
572,1.6007326007326008
573,1.5894993894993894
574,1.6018559218559218
575,1.6085958485958487
576,1.5894993894993894
577,1.5996092796092796
578,1.6254456654456657
579,1.6220757020757022
580,1.6142124542124543
581,1.61982905982906
582,1.6276923076923078
583,1.6220757020757022
584,1.6164590964590964
585,1.6108424908424908
586,1.6231990231990232
587,1.6231990231990232
588,1.6063492063492064
589,1.6288156288156288
590,1.6276923076923078
591,1.6265689865689863
592,1.6265689865689863
593,1.638925518925519
594,1.6467887667887668
595,1.6434188034188033
596,1.6333089133089134
597,1.6512820512820512
598,1.675995115995116
599,1.667008547008547
600,1.6715018315018315
601,1.6995848595848595
602,1.731037851037851
603,1.7624908424908423
604,1.7613675213675213
605,1.802930402930403
606,1.8355067155067155
607,1.8613431013431008
608,1.881562881562881
609,1.9062759462759464
610,1.9175091575091567
611,1.904029304029304
612,1.8871794871794871
613,1.8658363858363856
614,1.8355067155067155
615,1.7916971916971918
616,1.7557509157509157
617,1.749010989010989
618,1.722051282051282
619,1.710818070818071
620,1.6928449328449329
621,1.684981684981685
622,1.6950915750915752
623,1.6995848595848595
624,1.677118437118437
625,1.6816117216117217
626,1.6962148962148962
627,1.6883516483516483
628,1.6737484737484738
629,1.6647619047619049
630,1.684981684981685
631,1.6692551892551892
632,1.659145299145299
633,1.6737484737484738
634,1.6827350427350427
635,1.6748717948717948
636,1.6681318681318682
637,1.684981684981685
638,1.6984615384615385
639,1.702954822954823
640,1.6962148962148962
641,1.6883516483516483
642,1.6984615384615385
643,1.693968253968254
644,1.6692551892551892
645,1.6726251526251523
646,1.6962148962148962
647,1.686105006105006
648,1.677118437118437
649,1.693968253968254
650,1.693968253968254
651,1.6905982905982906
652,1.6950915750915752
653,1.6827350427350427
654,1.6917216117216116
655,1.6827350427350427
656,1.683858363858364
657,1.7063247863247863
658,1.7085714285714286
659,1.7231746031746031
660,1.7141880341880342
661,1.7287912087912087
662,1.7602442002442005
663,1.756874236874237
664,1.75013431013431
665,1.7703540903540904
666,1.7804639804639804
667,1.7714774114774114
668,1.722051282051282
669,1.6995848595848595
670,1.6995848595848595
671,1.7209279609279609
672,1.704078144078144
673,1.7074481074481074
674,1.711941391941392
675,1.6917216117216116
676,1.6737484737484738
677,1.6827350427350427
678,1.6928449328449329
679,1.6748717948717948
680,1.6715018315018315
681,1.675995115995116
682,1.683858363858364
683,1.6928449328449329
684,1.677118437118437
685,1.6445421245421246
686,1.6142124542124543
687,1.683858363858364
688,2.0084981684981686
689,2.5510622710622712
690,2.989157509157509
691,3.1374358974358976
692,2.835262515262515
693,2.3825641025641024
694,1.975921855921856
695,1.7512576312576311
696,1.683858363858364
697,1.6647619047619049
698,1.6378021978021975
699,1.6187057387057386
700,1.5962393162393165
701,1.586129426129426
702,1.5973626373626373
703,1.5894993894993894
704,1.565909645909646
705,1.5715262515262516
706,1.585006105006105
707,1.5872527472527471
708,1.5636630036630037
709,1.5636630036630037
710,1.5872527472527471
711,1.574896214896215
712,1.576019536019536
713,1.5805128205128205
714,1.6018559218559218
715,1.6063492063492064
716,1.5984859584859583
717,1.6108424908424908
718,1.632185592185592
719,1.604102564102564
720,1.5973626373626373
721,1.6175824175824176
722,1.6097191697191695
723,1.6063492063492064
724,1.6085958485958487
725,1.6220757020757022
726,1.631062271062271
727,1.6411721611721612
728,1.6333089133089134
729,1.6467887667887668
730,1.6703785103785105
731,1.6535286935286937
732,1.658021978021978
733,1.665885225885226
734,1.6816117216117217
735,1.6917216117216116
736,1.6872283272283273
737,1.7096947496947497
738,1.737777777777778
739,1.7366544566544566
740,1.7636141636141636
741,1.7905738705738703
742,1.832136752136752
743,1.8568498168498169
744,1.8647130647130647
745,1.9096459096459093
746,1.9366056166056167
747,1.915262515262516
748,1.9006593406593408
749,1.9017826617826616
750,1.871452991452992
751,1.820903540903541
752,1.7916971916971918
753,1.775970695970696
754,1.7445177045177045
755,1.7096947496947497
756,1.6726251526251523
757,1.6692551892551892
758,1.684981684981685
759,1.6715018315018315
760,1.647912087912088
761,1.6546520146520147
762,1.6524053724053724
763,1.6456654456654456
764,1.6613919413919414
765,1.6557753357753358
766,1.6681318681318682
767,1.667008547008547
768,1.6692551892551892
769,1.6703785103785105
770,1.686105006105006
771,1.665885225885226
772,1.675995115995116
773,1.6883516483516483
774,1.6827350427350427
775,1.6681318681318682
776,1.677118437118437
777,1.6692551892551892
778,1.6905982905982906
779,1.6816117216117217
780,1.677118437118437
781,1.7018315018315018
782,1.6894749694749696
783,1.686105006105006
784,1.6894749694749696
785,1.693968253968254
786,1.6962148962148962
787,1.6793650793650794
788,1.686105006105006
789,1.7018315018315018
790,1.710818070818071
791,1.702954822954823
792,1.705201465201465
793,1.713064713064713
794,1.7254212454212454
795,1.6995848595848595
796,1.702954822954823
797,1.722051282051282
798,1.7153113553113553
799,1.7175579975579975
800,1.7265445665445665
801,1.7344078144078143
802,1.74002442002442
803,1.737777777777778
804,1.7242979242979244
805,1.74002442002442
806,1.7445177045177045
807,1.7344078144078143
808,1.7366544566544566
809,1.75013431013431
810,1.7456410256410255
811,1.7411477411477412
812,1.7433943833943837
813,1.757997557997558
814,1.7647374847374848
815,1.7411477411477412
816,1.7422710622710622
817,1.7669841269841269
818,1.75013431013431
819,1.75013431013431
820,1.7512576312576311
821,1.7636141636141636
822,1.757997557997558
823,1.75013431013431
824,1.7602442002442005
825,1.775970695970696
826,1.7658608058608058
827,1.7613675213675213
828,1.7624908424908423
829,1.7647374847374848
830,1.7894505494505497
831,1.7860805860805862
832,1.7782173382173383
833,1.7973137973137974
834,1.7995604395604397
835,1.7748473748473748
836,1.7827106227106226
837,1.8063003663003665
838,1.8074236874236875
839,1.7894505494505497
840,1.7939438339438338
841,1.7894505494505497
842,1.7905738705738703
843,1.7939438339438338
844,1.7883272283272282
845,1.7939438339438338
846,1.7995604395604397
847,1.800683760683761
848,1.7995604395604397
849,1.7973137973137974
850,1.8085470085470088
851,1.811916971916972
852,1.8063003663003665
853,1.81978021978022
854,1.8141636141636144
855,1.802930402930403
856,1.7939438339438338
857,1.8063003663003665
858,1.8265201465201464
859,1.81978021978022
860,1.802930402930403
861,1.823150183150183
862,1.8366300366300363
863,1.831013431013431
864,1.8141636141636144
865,1.8242735042735043
866,1.8242735042735043
867,1.8096703296703296
868,1.8107936507936508
869,1.8175335775335768
870,1.823150183150183
871,1.8096703296703296
872,1.8074236874236875
873,1.827643467643468
874,1.811916971916972
875,1.802930402930403
876,1.8074236874236875
877,1.8141636141636144
878,1.813040293040293
879,1.8141636141636144
880,1.8063003663003665
881,1.8175335775335768
882,1.831013431013431
883,1.8085470085470088
884,1.8175335775335768
885,1.8164102564102564
886,1.8175335775335768
887,1.820903540903541
888,1.8051770451770448
889,1.81978021978022
890,1.8242735042735043
891,1.800683760683761
892,1.802930402930403
893,1.8164102564102564
894,1.796190476190476
895,1.802930402930403
896,1.7984371184371184
897,1.8164102564102564
898,1.8152869352869352
899,1.81978021978022
900,1.827643467643468
901,1.8388766788766788
902,1.8635897435897435
903,1.881562881562881
904,1.8781929181929184
905,1.886056166056166
906,1.8781929181929184
907,1.8523565323565323
908,1.8658363858363856
909,1.847863247863248
910,1.8287667887667889
911,1.802930402930403
912,1.775970695970696
913,1.784957264957265
914,1.7872039072039072
915,1.7658608058608058
916,1.7804639804639804
917,1.7815873015873016
918,1.768107448107448
919,1.7714774114774114
920,1.756874236874237
921,1.7815873015873016
922,1.784957264957265
923,1.722051282051282
924,1.74002442002442
925,1.915262515262516
926,2.320781440781441
927,2.7981929181929184
928,3.2104517704517703
929,3.295824175824176
930,2.940854700854701
931,2.405030525030525
932,1.9792918192918192
933,1.8107936507936508
934,1.75013431013431
935,1.7096947496947497
936,1.6928449328449329
937,1.6715018315018315
938,1.6501587301587302
939,1.6355555555555557
940,1.6231990231990232
941,1.632185592185592
942,1.61982905982906
943,1.615335775335775
944,1.604102564102564
945,1.6164590964590964
946,1.6063492063492064
947,1.6063492063492064
948,1.5973626373626373
949,1.620952380952381
950,1.615335775335775
951,1.6007326007326008
952,1.6097191697191695
953,1.6187057387057386
954,1.620952380952381
955,1.6164590964590964
956,1.6074725274725274
957,1.632185592185592
958,1.6265689865689863
959,1.61982905982906
960,1.61982905982906
961,1.6333089133089134
962,1.6187057387057386
963,1.611965811965812
964,1.6231990231990232
965,1.6333089133089134
966,1.636678876678877
967,1.6231990231990232
968,1.6265689865689863
969,1.6411721611721612
970,1.6512820512820512
971,1.64004884004884
972,1.6456654456654456
973,1.6703785103785105
974,1.658021978021978
975,1.6625152625152626
976,1.6715018315018315
977,1.686105006105006
978,1.7063247863247863
979,1.7153113553113553
980,1.722051282051282
981,1.757997557997558
982,1.7827106227106226
983,1.811916971916972
984,1.8467399267399267
985,1.881562881562881
986,1.9096459096459093
987,1.914139194139194
988,1.9309890109890109
989,1.9433455433455435
990,1.9006593406593408
991,1.869206349206349
992,1.8444932844932844
993,1.8175335775335768
994,1.7973137973137974
995,1.7613675213675213
996,1.7366544566544566
997,1.7366544566544566
998,1.7153113553113553
999,1.6950915750915752
1000,1.7063247863247863
1001,1.6995848595848595
1002,1.6872283272283273
1003,1.684981684981685
1004,1.683858363858364
1005,1.702954822954823
1006,1.684981684981685
1007,1.6872283272283273
1008,1.684981684981685
1009,1.6962148962148962
1010,1.6984615384615385
1011,1.6793650793650794
1012,1.6905982905982906
1013,1.705201465201465
1014,1.6883516483516483
1015,1.6917216117216116
1016,1.6950915750915752
1017,1.6962148962148962
1018,1.705201465201465
1019,1.6950915750915752
1020,1.684981684981685
1021,1.7007081807081808
1022,1.6984615384615385
1023,1.683858363858364
1024,1.6995848595848595
1025,1.6973382173382174
1026,1.6917216117216116
1027,1.7007081807081808
1028,1.6962148962148962
1029,1.7186813186813186
1030,1.710818070818071
1031,1.6917216117216116
1032,1.704078144078144
1033,1.713064713064713
1034,1.7063247863247863
1035,1.713064713064713
1036,1.702954822954823
1037,1.7231746031746031
1038,1.704078144078144
1039,1.713064713064713
1040,1.7074481074481074
1041,1.7175579975579975
1042,1.722051282051282
1043,1.7186813186813186
1044,1.7175579975579975
1045,1.7254212454212454
1046,1.7254212454212454
1047,1.7175579975579975
1048,1.7141880341880342
1049,1.737777777777778
1050,1.7332844932844933
1051,1.7198046398046398
1052,1.72991452991453
1053,1.7287912087912087
1054,1.7344078144078143
1055,1.7164346764346765
1056,1.7287912087912087
1057,1.7456410256410255
1058,1.7265445665445665
1059,1.7254212454212454
1060,1.7321611721611725
1061,1.7355311355311356
1062,1.7287912087912087
1063,1.7186813186813186
1064,1.74002442002442
1065,1.7411477411477412
1066,1.74002442002442
1067,1.7242979242979244
1068,1.7478876678876678
1069,1.7557509157509157
1070,1.737777777777778
1071,1.738901098901099
1072,1.7355311355311356
1073,1.7456410256410255
1074,1.7535042735042734
1075,1.737777777777778
1076,1.7456410256410255
1077,1.749010989010989
1078,1.7523809523809524
1079,1.7422710622710622
1080,1.74002442002442
1081,1.7523809523809524
1082,1.7422710622710622
1083,1.7355311355311356
1084,1.7546275946275949
1085,1.7456410256410255
1086,1.7411477411477412
1087,1.7344078144078143
1088,1.7411477411477412
1089,1.7613675213675213
1090,1.7411477411477412
1091,1.737777777777778
1092,1.7456410256410255
1093,1.7636141636141636
1094,1.74002442002442
1095,1.74002442002442
1096,1.756874236874237
1097,1.7512576312576311
1098,1.7411477411477412
1099,1.7344078144078143
1100,1.7546275946275949
1101,1.7636141636141636
1102,1.7456410256410255
1103,1.7422710622710622
1104,1.7636141636141636
1105,1.7557509157509157
1106,1.7546275946275949
1107,1.74002442002442
1108,1.7422710622710622
1109,1.7726007326007327
1110,1.757997557997558
1111,1.738901098901099
1112,1.749010989010989
1113,1.7669841269841269
1114,1.7546275946275949
1115,1.7433943833943837
1116,1.7546275946275949
1117,1.7523809523809524
1118,1.7445177045177045
1119,1.7535042735042734
1120,1.7478876678876678
1121,1.7613675213675213
1122,1.7602442002442005
1123,1.7433943833943837
1124,1.7535042735042734
1125,1.7669841269841269
1126,1.7591208791208792
1127,1.737777777777778
1128,1.75013431013431
1129,1.7669841269841269
1130,1.757997557997558
1131,1.7714774114774114
1132,1.7973137973137974
1133,1.813040293040293
1134,1.813040293040293
1135,1.811916971916972
1136,1.8175335775335768
1137,1.823150183150183
1138,1.8175335775335768
1139,1.8018070818070813
1140,1.8175335775335768
1141,1.8152869352869352
1142,1.7782173382173383
1143,1.757997557997558
1144,1.757997557997558
1145,1.7703540903540904
1146,1.7456410256410255
1147,1.7456410256410255
1148,1.757997557997558
1149,1.7445177045177045
1150,1.7557509157509157
1151,1.7433943833943837
1152,1.738901098901099
1153,1.7445177045177045
1154,1.7591208791208792
1155,1.737777777777778
1156,1.722051282051282
1157,1.7242979242979244
1158,1.8927960927960927
1159,2.2882051282051283
1160,2.816166056166056
1161,3.1924786324786325
1162,3.235164835164835
1163,2.888058608058608
1164,2.3645909645909646
1165,1.9691819291819288
1166,1.7905738705738703
1167,1.7186813186813186
1168,1.704078144078144
1169,1.675995115995116
1170,1.6613919413919414
1171,1.6254456654456657
1172,1.6299389499389498
1173,1.6243223443223442
1174,1.5973626373626373
1175,1.5962393162393165
1176,1.6108424908424908
1177,1.6029792429792429
1178,1.6074725274725274
1179,1.5883760683760684
1180,1.613089133089133
1181,1.6187057387057386
1182,1.5973626373626373
1183,1.593992673992674
1184,1.6175824175824176
1185,1.615335775335775
1186,1.6074725274725274
1187,1.613089133089133
1188,1.611965811965812
1189,1.6254456654456657
1190,1.61982905982906
1191,1.604102564102564
1192,1.6299389499389498
1193,1.6243223443223442
1194,1.6175824175824176
1195,1.6108424908424908
1196,1.6276923076923078
1197,1.6434188034188033
1198,1.6175824175824176
1199,1.6164590964590964
1200,1.6265689865689863
1201,1.6254456654456657
1202,1.631062271062271
1203,1.6355555555555557
1204,1.64004884004884
1205,1.6501587301587302
1206,1.6546520146520147
1207,1.6467887667887668
1208,1.6636385836385836
1209,1.6737484737484738
1210,1.6872283272283273
1211,1.678241758241758
1212,1.7085714285714286
1213,1.7445177045177045
1214,1.7433943833943837
1215,1.7658608058608058
1216,1.81978021978022
1217,1.85010989010989
1218,1.8523565323565323
1219,1.866959706959707
1220,1.9051526251526247
1221,1.9163858363858364
1222,1.8927960927960927
1223,1.8703296703296703
1224,1.8658363858363856
1225,1.8388766788766788
1226,1.8018070818070813
1227,1.756874236874237
1228,1.749010989010989
1229,1.7366544566544566
1230,1.710818070818071
1231,1.686105006105006
1232,1.7063247863247863
1233,1.6905982905982906
1234,1.6872283272283273
1235,1.678241758241758
1236,1.6827350427350427
1237,1.6962148962148962
1238,1.6681318681318682
1239,1.667008547008547
1240,1.6973382173382174
1241,1.6883516483516483
1242,1.677118437118437
1243,1.6872283272283273
1244,1.678241758241758
1245,1.6816117216117217
1246,1.678241758241758
1247,1.6917216117216116
1248,1.6883516483516483
1249,1.704078144078144
1250,1.6827350427350427
1251,1.6917216117216116
1252,1.6973382173382174
1253,1.7074481074481074
1254,1.6995848595848595
1255,1.6793650793650794
1256,1.6962148962148962
1257,1.6995848595848595
1258,1.683858363858364
1259,1.6962148962148962
1260,1.6995848595848595
1261,1.7063247863247863
1262,1.7063247863247863
1263,1.6995848595848595
1264,1.704078144078144
1265,1.7063247863247863
1266,1.705201465201465
1267,1.6962148962148962
1268,1.7175579975579975
1269,1.7287912087912087
1270,1.7074481074481074
1271,1.7085714285714286
1272,1.72991452991453
1273,1.722051282051282
1274,1.7153113553113553
1275,1.711941391941392
1276,1.7231746031746031
1277,1.7344078144078143
1278,1.7141880341880342
1279,1.7209279609279609
1280,1.7332844932844933
1281,1.7254212454212454
1282,1.7209279609279609
1283,1.7265445665445665
1284,1.7344078144078143
1285,1.74002442002442
1286,1.7276678876678877
1287,1.72991452991453
1288,1.7445177045177045
1289,1.72991452991453
1290,1.7141880341880342
1291,1.7254212454212454
1292,1.7265445665445665
1293,1.7332844932844933
1294,1.7287912087912087
1295,1.74002442002442
1296,1.7411477411477412
1297,1.75013431013431
1298,1.74002442002442
1299,1.7287912087912087
1300,1.74002442002442
1301,1.7478876678876678
1302,1.7332844932844933
1303,1.7445177045177045
1304,1.7456410256410255
1305,1.7366544566544566
1306,1.7265445665445665
1307,1.7242979242979244
1308,1.74002442002442
1309,1.7445177045177045
1310,1.7186813186813186
1311,1.7276678876678877
1312,1.731037851037851
1313,1.74002442002442
1314,1.72991452991453
1315,1.7332844932844933
1316,1.7344078144078143
1317,1.7445177045177045
1318,1.7242979242979244
1319,1.7287912087912087
1320,1.7512576312576311
1321,1.7433943833943837
1322,1.7265445665445665
1323,1.7355311355311356
1324,1.72991452991453
1325,1.72991452991453
1326,1.7265445665445665
1327,1.7276678876678877
1328,1.7478876678876678
1329,1.713064713064713
1330,1.6984615384615385
1331,1.6950915750915752
1332,1.7141880341880342
1333,1.7063247863247863
1334,1.6962148962148962
1335,1.7153113553113553
1336,1.7186813186813186
1337,1.7198046398046398
1338,1.7175579975579975
1339,1.7164346764346765
1340,1.7153113553113553
1341,1.722051282051282
1342,1.6995848595848595
1343,1.7164346764346765
1344,1.7422710622710622
1345,1.711941391941392
1346,1.7164346764346765
1347,1.713064713064713
1348,1.7276678876678877
1349,1.7141880341880342
1350,1.7085714285714286
1351,1.6995848595848595
1352,1.7186813186813186
1353,1.7096947496947497
1354,1.7287912087912087
1355,1.749010989010989
1356,1.7748473748473748
1357,1.7658608058608058
1358,1.7726007326007327
1359,1.783833943833944
1360,1.7995604395604397
1361,1.7905738705738703
1362,1.7692307692307692
1363,1.777094017094017
1364,1.7714774114774114
1365,1.7692307692307692
1366,1.7535042735042734
1367,1.7276678876678877
1368,1.7332844932844933
1369,1.7366544566544566
1370,1.7085714285714286
1371,1.7164346764346765
1372,1.7321611721611725
1373,1.7164346764346765
1374,1.7164346764346765
1375,1.7074481074481074
1376,1.7242979242979244
1377,1.72991452991453
1378,1.722051282051282
1379,1.7186813186813186
1380,1.6827350427350427
1381,1.632185592185592
1382,1.7085714285714286
1383,2.023101343101343
1384,2.565665445665445
1385,2.9857875457875456
1386,3.1745054945054947
1387,2.9206349206349205
1388,2.4724297924297924
1389,2.048937728937729
1390,1.811916971916972
1391,1.7355311355311356
1392,1.7265445665445665
1393,1.686105006105006
1394,1.6602686202686203
1395,1.647912087912088
1396,1.6344322344322344
1397,1.6276923076923078
1398,1.61982905982906
1399,1.6231990231990232
1400,1.6164590964590964
1401,1.620952380952381
1402,1.6007326007326008
1403,1.6108424908424908
1404,1.6175824175824176
1405,1.6018559218559218
1406,1.6052258852258852
1407,1.6288156288156288
1408,1.6333089133089134
1409,1.64004884004884
1410,1.6231990231990232
1411,1.6276923076923078
1412,1.647912087912088
1413,1.6243223443223442
1414,1.613089133089133
1415,1.632185592185592
1416,1.6535286935286937
1417,1.632185592185592
1418,1.6411721611721612
1419,1.658021978021978
1420,1.6602686202686203
1421,1.667008547008547
1422,1.6411721611721612
1423,1.659145299145299
1424,1.6613919413919414
1425,1.6602686202686203
1426,1.6557753357753358
1427,1.6636385836385836
1428,1.6681318681318682
1429,1.6748717948717948
1430,1.683858363858364
1431,1.6905982905982906
1432,1.7153113553113553
1433,1.6995848595848595
1434,1.7186813186813186
1435,1.737777777777778
1436,1.7591208791208792
1437,1.7883272283272282
1438,1.7928205128205128
1439,1.820903540903541
1440,1.8736996336996337
1441,1.8905494505494504
1442,1.9107692307692308
1443,1.955702075702076
1444,1.966935286935287
1445,1.9455921855921856
1446,1.9332356532356527
1447,1.915262515262516
1448,1.87931623931624
1449,1.8512332112332115
1450,1.8107936507936508
1451,1.7804639804639804
1452,1.7703540903540904
1453,1.7276678876678877
1454,1.710818070818071
1455,1.7085714285714286
1456,1.693968253968254
1457,1.6962148962148962
1458,1.6715018315018315
1459,1.684981684981685
1460,1.6905982905982906
1461,1.6872283272283273
1462,1.6625152625152626
1463,1.6793650793650794
1464,1.6748717948717948
1465,1.675995115995116
1466,1.6748717948717948
1467,1.686105006105006
1468,1.7085714285714286
1469,1.686105006105006
1470,1.6793650793650794
1471,1.6928449328449329
1472,1.6883516483516483
1473,1.675995115995116
1474,1.6827350427350427
1475,1.7074481074481074
1476,1.6984615384615385
1477,1.693968253968254
1478,1.6984615384615385
1479,1.6928449328449329
1480,1.704078144078144
1481,1.6928449328449329
1482,1.6872283272283273
1483,1.710818070818071
1484,1.7242979242979244
1485,1.704078144078144
1486,1.6962148962148962
1487,1.7164346764346765
1488,1.72991452991453
1489,1.7085714285714286
1490,1.7085714285714286
1491,1.7355311355311356
1492,1.75013431013431
1493,1.722051282051282
1494,1.7198046398046398
1495,1.7422710622710622
1496,1.7433943833943837
1497,1.74002442002442
1498,1.737777777777778
1499,1.7411477411477412
1500,1.7591208791208792
1501,1.7467643467643468
1502,1.7411477411477412
1503,1.756874236874237
1504,1.775970695970696
1505,1.7546275946275949
1506,1.7591208791208792
1507,1.7692307692307692
1508,1.783833943833944
1509,1.7703540903540904
1510,1.7636141636141636
1511,1.7905738705738703
1512,1.7995604395604397
1513,1.7827106227106226
1514,1.779340659340659
1515,1.7905738705738703
1516,1.7894505494505497
1517,1.7827106227106226
1518,1.7827106227106226
1519,1.7860805860805862
1520,1.8074236874236875
1521,1.800683760683761
1522,1.7905738705738703
1523,1.8141636141636144
1524,1.8074236874236875
1525,1.8074236874236875
1526,1.795067155067155
1527,1.8186568986568987
1528,1.8164102564102564
1529,1.8141636141636144
1530,1.7984371184371184
1531,1.8175335775335768
1532,1.81978021978022
1533,1.8085470085470088
1534,1.8074236874236875
1535,1.820903540903541
1536,1.8164102564102564
1537,1.8107936507936508
1538,1.796190476190476
1539,1.8164102564102564
1540,1.8141636141636144
1541,1.8085470085470088
1542,1.795067155067155
1543,1.8141636141636144
1544,1.8242735042735043
1545,1.7973137973137974
1546,1.7916971916971918
1547,1.7894505494505497
1548,1.811916971916972
1549,1.7984371184371184
1550,1.8175335775335768
1551,1.8175335775335768
1552,1.8377533577533576
1553,1.8444932844932844
1554,1.8512332112332115
1555,1.8849328449328449
1556,1.874822954822955
1557,1.8613431013431008
1558,1.848986568986569
1559,1.8568498168498169
1560,1.8377533577533576
1561,1.8186568986568987
1562,1.7916971916971918
1563,1.7883272283272282
1564,1.775970695970696
1565,1.7636141636141636
1566,1.7669841269841269
1567,1.7624908424908423
1568,1.775970695970696
1569,1.7523809523809524
1570,1.7512576312576311
1571,1.7602442002442005
1572,1.7726007326007327
1573,1.7591208791208792
1574,1.7332844932844933
1575,1.7164346764346765
1576,1.7872039072039072
1577,2.089377289377289
1578,2.565665445665445
1579,3.054310134310134
1580,3.29919413919414
1581,3.0857631257631257
1582,2.594871794871795
1583,2.112967032967033
1584,1.85010989010989
1585,1.7467643467643468
1586,1.711941391941392
1587,1.6894749694749696
1588,1.6872283272283273
1589,1.658021978021978
1590,1.6333089133089134
1591,1.6344322344322344
1592,1.61982905982906
1593,1.615335775335775
1594,1.5996092796092796
1595,1.6097191697191695
1596,1.6254456654456657
1597,1.6142124542124543
1598,1.6007326007326008
1599,1.611965811965812
1600,1.6187057387057386
1601,1.6164590964590964
1602,1.6097191697191695
1603,1.6142124542124543
1604,1.6299389499389498
1605,1.6085958485958487
1606,1.61982905982906
1607,1.6299389499389498
1608,1.6288156288156288
1609,1.6164590964590964
1610,1.6142124542124543
1611,1.638925518925519
1612,1.6434188034188033
1613,1.6265689865689863
1614,1.6422954822954825
1615,1.6344322344322344
1616,1.64004884004884
1617,1.647912087912088
1618,1.6344322344322344
1619,1.6445421245421246
1620,1.6557753357753358
1621,1.6490354090354091
1622,1.6501587301587302
1623,1.6557753357753358
1624,1.6726251526251523
1625,1.6625152625152626
1626,1.667008547008547
1627,1.6827350427350427
1628,1.6962148962148962
1629,1.7153113553113553
1630,1.7276678876678877
1631,1.7557509157509157
1632,1.7827106227106226
1633,1.811916971916972
1634,1.82989010989011
1635,1.8883028083028084
1636,1.904029304029304
1637,1.9309890109890109
1638,1.9186324786324789
1639,1.93997557997558
1640,1.9287423687423688
1641,1.886056166056166
1642,1.85010989010989
1643,1.8343833943833945
1644,1.795067155067155
1645,1.7726007326007327
1646,1.74002442002442
1647,1.7287912087912087
1648,1.72991452991453
1649,1.6917216117216116
1650,1.6950915750915752
1651,1.693968253968254
1652,1.6894749694749696
1653,1.6715018315018315
1654,1.6793650793650794
1655,1.677118437118437
1656,1.683858363858364
1657,1.6793650793650794
1658,1.6692551892551892
1659,1.6804884004884004
1660,1.6962148962148962
1661,1.6804884004884004
1662,1.6703785103785105
1663,1.6872283272283273
1664,1.678241758241758
1665,1.6703785103785105
1666,1.677118437118437
1667,1.686105006105006
1668,1.686105006105006
1669,1.684981684981685
1670,1.6715018315018315
1671,1.6883516483516483
1672,1.6962148962148962
1673,1.677118437118437
1674,1.684981684981685
1675,1.6973382173382174
1676,1.6894749694749696
1677,1.693968253968254
1678,1.7007081807081808
1679,1.6984615384615385
1680,1.6984615384615385
1681,1.7018315018315018
1682,1.6950915750915752
1683,1.7085714285714286
1684,1.6995848595848595
1685,1.704078144078144
1686,1.702954822954823
1687,1.7141880341880342
1688,1.7153113553113553
1689,1.7007081807081808
1690,1.711941391941392
1691,1.7164346764346765
1692,1.7254212454212454
1693,1.713064713064713
1694,1.7153113553113553
1695,1.7276678876678877
1696,1.7355311355311356
1697,1.7063247863247863
1698,1.7209279609279609
1699,1.738901098901099
1700,1.7355311355311356
1701,1.722051282051282
1702,1.7254212454212454
1703,1.72991452991453
1704,1.7344078144078143
1705,1.7366544566544566
1706,1.722051282051282
1707,1.7456410256410255
1708,1.7332844932844933
1709,1.7344078144078143
1710,1.7276678876678877
1711,1.7355311355311356
1712,1.7422710622710622
1713,1.7321611721611725
1714,1.7321611721611725
1715,1.75013431013431
1716,1.7344078144078143
1717,1.7265445665445665
1718,1.74002442002442
1719,1.7366544566544566
1720,1.7467643467643468
1721,1.74002442002442
1722,1.7344078144078143
1723,1.7445177045177045
1724,1.737777777777778
1725,1.7445177045177045
1726,1.7411477411477412
1727,1.7433943833943837
1728,1.75013431013431
1729,1.7478876678876678
1730,1.7366544566544566
1731,1.7456410256410255
1732,1.7557509157509157
1733,1.7344078144078143
1734,1.7456410256410255
1735,1.7636141636141636
1736,1.749010989010989
1737,1.7512576312576311
1738,1.7433943833943837
1739,1.7613675213675213
1740,1.7613675213675213
1741,1.7411477411477412
1742,1.7557509157509157
1743,1.75013431013431
1744,1.7535042735042734
1745,1.7512576312576311
1746,1.7478876678876678
1747,1.768107448107448
1748,1.775970695970696
1749,1.7737240537240535
1750,1.7748473748473748
1751,1.8107936507936508
1752,1.82989010989011
1753,1.82989010989011
1754,1.820903540903541
1755,1.82989010989011
1756,1.823150183150183
1757,1.822026862026862
1758,1.802930402930403
1759,1.7883272283272282
1760,1.768107448107448
1761,1.7546275946275949
1762,1.7366544566544566
1763,1.7433943833943837
1764,1.74002442002442
1765,1.7411477411477412
1766,1.738901098901099
1767,1.7546275946275949
1768,1.7321611721611725
1769,1.72991452991453
1770,1.7422710622710622
1771,1.7591208791208792
1772,1.7422710622710622
1773,1.7074481074481074
1774,1.811916971916972
1775,2.145543345543345
1776,2.606105006105006
1777,3.0644200244200244
1778,3.291330891330891
1779,3.081269841269841
1780,2.5926251526251525
1781,2.0747741147741148
1782,1.8287667887667889
1783,1.7478876678876678
1784,1.7018315018315018
1785,1.6636385836385836
1786,1.6512820512820512
1787,1.6355555555555557
1788,1.620952380952381
1789,1.613089133089133
1790,1.5962393162393165
1791,1.613089133089133
1792,1.5951159951159952
1793,1.5962393162393165
1794,1.5894993894993894
1795,1.6007326007326008
1796,1.6018559218559218
1797,1.586129426129426
1798,1.5906227106227109
1799,1.6164590964590964
1800,1.613089133089133
1801,1.593992673992674
1802,1.6097191697191695
1803,1.6074725274725274
1804,1.615335775335775
1805,1.613089133089133
1806,1.6018559218559218
1807,1.61982905982906
1808,1.6052258852258852
1809,1.611965811965812
1810,1.6108424908424908
1811,1.6299389499389498
1812,1.6265689865689863
1813,1.6231990231990232
1814,1.6299389499389498
1815,1.6344322344322344
1816,1.6344322344322344
1817,1.6254456654456657
1818,1.6333089133089134
1819,1.6490354090354091
1820,1.6355555555555557
1821,1.6456654456654456
1822,1.6647619047619049
1823,1.6647619047619049
1824,1.6636385836385836
1825,1.675995115995116
1826,1.6894749694749696
1827,1.7164346764346765
1828,1.7366544566544566
1829,1.7366544566544566
1830,1.777094017094017
1831,1.8164102564102564
1832,1.85010989010989
1833,1.86021978021978
1834,1.907399267399268
1835,1.9264957264957263
1836,1.9197557997558
1837,1.9186324786324789
1838,1.913015873015873
1839,1.891672771672772
1840,1.8568498168498169
1841,1.800683760683761
1842,1.7905738705738703
1843,1.779340659340659
1844,1.74002442002442
1845,1.7231746031746031
1846,1.7287912087912087
1847,1.7085714285714286
1848,1.6950915750915752
1849,1.6737484737484738
1850,1.6928449328449329
1851,1.693968253968254
1852,1.675995115995116
1853,1.6625152625152626
1854,1.6872283272283273
1855,1.6917216117216116
1856,1.6804884004884004
1857,1.6748717948717948
1858,1.686105006105006
1859,1.6905982905982906
1860,1.6984615384615385
1861,1.6827350427350427
1862,1.683858363858364
1863,1.6950915750915752
1864,1.684981684981685
1865,1.6905982905982906
1866,1.6883516483516483
1867,1.7007081807081808
1868,1.6872283272283273
1869,1.6748717948717948
1870,1.6962148962148962
1871,1.7007081807081808
1872,1.6950915750915752
1873,1.684981684981685
1874,1.6928449328449329
1875,1.7153113553113553
1876,1.6984615384615385
1877,1.6984615384615385
1878,1.693968253968254
1879,1.710818070818071
1880,1.693968253968254
1881,1.6984615384615385
1882,1.702954822954823
1883,1.713064713064713
1884,1.713064713064713
1885,1.704078144078144
1886,1.731037851037851
1887,1.7231746031746031
1888,1.7141880341880342
1889,1.7096947496947497
1890,1.7231746031746031
1891,1.7209279609279609
1892,1.722051282051282
1893,1.7096947496947497
1894,1.7344078144078143
1895,1.7254212454212454
1896,1.7231746031746031
1897,1.731037851037851
1898,1.7287912087912087
1899,1.74002442002442
1900,1.72991452991453
1901,1.7242979242979244
1902,1.7366544566544566
1903,1.7422710622710622
1904,1.7422710622710622
1905,1.7265445665445665
1906,1.7535042735042734
1907,1.737777777777778
1908,1.731037851037851
1909,1.7344078144078143
1910,1.72991452991453
1911,1.75013431013431
1912,1.7332844932844933
1913,1.7366544566544566
1914,1.737777777777778
1915,1.74002442002442
1916,1.749010989010989
1917,1.7254212454212454
1918,1.757997557997558
1919,1.7535042735042734
1920,1.7366544566544566
1921,1.7242979242979244
1922,1.7332844932844933
1923,1.75013431013431
1924,1.7332844932844933
1925,1.7411477411477412
1926,1.737777777777778
1927,1.7535042735042734
1928,1.7344078144078143
1929,1.7445177045177045
1930,1.7445177045177045
1931,1.7591208791208792
1932,1.74002442002442
1933,1.7546275946275949
1934,1.756874236874237
1935,1.7591208791208792
1936,1.7478876678876678
1937,1.7445177045177045
1938,1.7344078144078143
1939,1.7478876678876678
1940,1.72991452991453
1941,1.7411477411477412
1942,1.7445177045177045
1943,1.7557509157509157
1944,1.7467643467643468
1945,1.7456410256410255
1946,1.75013431013431
1947,1.749010989010989
1948,1.738901098901099
1949,1.7287912087912087
1950,1.75013431013431
1951,1.7467643467643468
1952,1.7265445665445665
1953,1.7321611721611725
1954,1.7344078144078143
1955,1.74002442002442
1956,1.7433943833943837
1957,1.7321611721611725
1958,1.738901098901099
1959,1.7478876678876678
1960,1.7355311355311356
1961,1.7456410256410255
1962,1.7714774114774114
1963,1.7827106227106226
1964,1.795067155067155
1965,1.800683760683761
1966,1.8355067155067155
1967,1.825396825396825
1968,1.820903540903541
1969,1.822026862026862
1970,1.802930402930403
1971,1.7905738705738703
1972,1.7355311355311356
1973,1.7231746031746031
1974,1.7321611721611725
1975,1.7242979242979244
1976,1.7175579975579975
1977,1.6962148962148962
1978,1.7153113553113553
1979,1.7153113553113553
1980,1.6950915750915752
1981,1.6995848595848595
1982,1.7153113553113553
1983,1.705201465201465
1984,1.705201465201465
1985,1.6692551892551892
1986,1.6254456654456657
1987,1.6456654456654456
1988,1.827643467643468
1989,2.274725274725274
1990,2.8094261294261296
1991,3.1273260073260074
1992,3.0464468864468865
1993,2.631941391941392
1994,2.183736263736264
1995,1.8658363858363856
1996,1.7242979242979244
1997,1.686105006105006
1998,1.665885225885226
1999,1.6557753357753358
2000,1.6231990231990232
2001,1.6029792429792429
2002,1.5962393162393165
2003,1.604102564102564
2004,1.5827594627594628
2005,1.5838827838827838
2006,1.5906227106227109
2007,1.5872527472527471
2008,1.576019536019536
2009,1.5838827838827838
2010,1.5872527472527471
2011,1.5883760683760684
2012,1.5962393162393165
2013,1.585006105006105
2014,1.6085958485958487
2015,1.5962393162393165
2016,1.592869352869353
2017,1.6074725274725274
2018,1.6231990231990232
2019,1.6254456654456657
2020,1.5973626373626373
2021,1.6074725274725274
2022,1.6108424908424908
2023,1.6142124542124543
2024,1.6276923076923078
2025,1.6187057387057386
2026,1.636678876678877
2027,1.6265689865689863
2028,1.61982905982906
2029,1.6265689865689863
2030,1.6501587301587302
2031,1.6422954822954825
2032,1.6467887667887668
2033,1.6501587301587302
2034,1.6737484737484738
2035,1.6726251526251523
2036,1.677118437118437
2037,1.683858363858364
2038,1.7175579975579975
2039,1.710818070818071
2040,1.7276678876678877
2041,1.7344078144078143
2042,1.7804639804639804
2043,1.7928205128205128
2044,1.8141636141636144
2045,1.8523565323565323
2046,1.904029304029304
2047,1.9096459096459093
2048,1.914139194139194
2049,1.9377289377289373
2050,1.9332356532356527
2051,1.915262515262516
2052,1.868083028083028
2053,1.843369963369964
2054,1.8265201465201464
2055,1.7872039072039072
2056,1.7591208791208792
2057,1.7321611721611725
2058,1.722051282051282
2059,1.7007081807081808
2060,1.6793650793650794
2061,1.6726251526251523
2062,1.693968253968254
2063,1.677118437118437
2064,1.656898656898657
2065,1.667008547008547
2066,1.6737484737484738
2067,1.6726251526251523
2068,1.6625152625152626
2069,1.6737484737484738
2070,1.677118437118437
2071,1.6804884004884004
2072,1.677118437118437
2073,1.667008547008547
2074,1.6883516483516483
2075,1.6715018315018315
2076,1.6703785103785105
2077,1.6703785103785105
2078,1.678241758241758
2079,1.675995115995116
2080,1.6793650793650794
2081,1.684981684981685
2082,1.6894749694749696
2083,1.6973382173382174
2084,1.683858363858364
2085,1.6905982905982906
2086,1.7063247863247863
2087,1.704078144078144
2088,1.6995848595848595
2089,1.693968253968254
2090,1.702954822954823
2091,1.7175579975579975
2092,1.704078144078144
2093,1.7018315018315018
2094,1.7175579975579975
2095,1.7153113553113553
2096,1.7085714285714286
2097,1.7276678876678877
2098,1.7366544566544566
2099,1.7422710622710622
