index,II
0,131
1,131
2,130
3,130
4,130
5,129
6,131
7,129
8,129
9,129
10,130
11,130
12,130
13,131
14,130
15,129
16,129
17,129
18,129
19,129
20,129
21,129
22,129
23,129
24,129
25,130
26,130
27,131
28,131
29,131
30,131
31,131
32,131
33,129
34,132
35,124
36,117
37,107
38,100
39,129
40,130
41,130
42,131
43,131
44,131
45,130
46,130
47,129
48,90
49,100
50,108
51,116
52,124
53,132
54,129
55,129
56,129
57,130
58,130
59,130
60,130
61,130
62,130
63,130
64,130
65,130
66,130
67,129
68,129
69,129
70,129
71,129
72,129
73,128
74,127
75,122
76,121
77,124
78,124
79,127
80,129
81,129
82,129
83,129
84,129
85,129
86,129
87,129
88,130
89,130
90,130
91,130
92,130
93,130
94,130
95,129
96,129
97,130
98,130
99,130
100,130
101,130
102,130
103,130
104,131
105,131
106,131
107,130
108,131
109,134
110,134
111,131
112,131
113,131
114,130
115,130
116,130
117,130
118,130
119,129
120,129
121,128
122,127
123,126
124,126
125,125
126,125
127,131
128,130
129,130
130,129
131,129
132,130
133,130
134,129
135,130
136,130
137,131
138,131
139,131
140,130
141,129
142,129
143,129
144,129
145,129
146,130
147,129
148,129
149,129
150,129
151,131
152,131
153,137
154,133
155,137
156,131
157,131
158,129
159,129
160,130
161,129
162,129
163,129
164,129
165,129
166,129
167,130
168,130
169,131
170,131
171,131
172,130
173,129
174,129
175,130
176,130
177,128
178,130
179,123
180,130
181,126
182,126
183,127
184,128
185,128
186,128
187,128
188,128
189,128
190,128
191,128
192,128
193,129
194,129
195,129
196,130
197,130
198,129
199,129
200,129
201,130
202,130
203,132
204,132
205,132
206,135
207,136
208,136
209,136
210,135
211,132
212,132
213,131
214,133
215,133
216,133
217,133
218,133
219,131
220,131
221,132
222,131
223,133
224,133
225,131
226,131
227,131
228,132
229,135
230,135
231,136
232,136
233,136
234,136
235,136
236,138
237,138
238,139
239,139
240,139
241,139
242,139
243,139
244,139
245,139
246,138
247,138
248,137
249,137
250,137
251,137
252,137
253,138
254,139
255,140
256,140
257,141
258,141
259,142
260,141
261,141
262,140
263,140
264,140
265,140
266,140
267,141
268,141
269,142
270,142
271,142
272,142
273,142
274,143
275,142
276,142
277,142
278,142
279,141
280,141
281,141
282,142
283,142
284,142
285,142
286,142
287,141
288,141
289,140
290,139
291,139
292,139
293,139
294,140
295,140
296,139
297,139
298,139
299,138
300,139
301,139
302,140
303,140
304,140
305,140
306,140
307,140
308,140
309,140
310,139
311,133
312,132
313,132
314,130
315,130
316,130
317,129
318,130
319,129
320,129
321,129
322,129
323,130
324,131
325,131
326,130
327,131
328,130
329,130
330,129
331,129
332,129
333,129
334,129
335,129
336,129
337,129
338,129
339,130
340,131
341,131
342,130
343,131
344,130
345,130
346,129
347,129
348,129
349,129
350,129
351,127
352,127
353,127
354,127
355,127
356,127
357,127
358,127
359,129
360,130
361,133
362,132
363,132
364,131
365,130
366,129
367,128
368,127
369,126
370,125
371,124
372,130
373,128
374,127
375,127
376,127
377,127
378,129
379,130
380,126
381,126
382,127
383,126
384,126
385,127
386,127
387,127
388,132
389,133
390,132
391,132
392,134
393,131
394,131
395,131
396,130
397,130
398,131
399,133
400,133
401,133
402,133
403,130
404,131
405,131
406,130
407,131
408,131
409,131
410,131
411,131
412,130
413,130
414,129
415,134
416,130
417,126
418,122
419,114
420,104
421,129
422,129
423,129
424,130
425,131
426,131
427,131
428,131
429,131
430,131
431,130
432,129
433,101
434,112
435,123
436,128
437,130
438,131
439,131
440,131
441,134
442,134
443,130
444,130
445,129
446,128
447,129
448,129
449,129
450,129
451,130
452,130
453,130
454,130
455,130
456,130
457,130
458,129
459,129
460,129
461,129
462,129
463,128
464,128
465,127
466,128
467,127
468,121
469,121
470,121
471,127
472,128
473,129
474,129
475,129
476,130
477,129
478,131
479,129
480,129
481,129
482,130
483,130
484,130
485,130
486,130
487,131
488,129
489,129
490,130
491,129
492,129
493,129
494,131
495,132
496,134
497,134
498,133
499,135
500,134
501,132
502,131
503,131
504,131
505,130
506,129
507,127
508,127
509,128
510,128
511,128
512,128
513,128
514,127
515,127
516,126
517,126
518,127
519,126
520,131
521,127
522,127
523,127
524,127
525,127
526,126
527,125
528,131
529,131
530,129
531,130
532,130
533,131
534,131
535,130
536,129
537,129
538,129
539,129
540,129
541,129
542,129
543,131
544,131
545,131
546,134
547,133
548,134
549,131
550,131
551,129
552,130
553,129
554,130
555,129
556,130
557,129
558,125
559,126
560,126
561,128
562,129
563,130
564,131
565,131
566,133
567,133
568,128
569,127
570,127
571,127
572,130
573,130
574,131
575,129
576,129
577,130
578,130
579,131
580,131
581,130
582,130
583,129
584,129
585,129
586,129
587,129
588,129
589,130
590,130
591,130
592,130
593,130
594,130
595,130
596,130
597,129
598,129
599,129
600,129
601,129
602,129
603,129
604,129
605,129
606,129
607,129
608,130
609,130
610,130
611,130
612,130
613,129
614,129
615,129
616,129
617,129
618,129
619,129
620,129
621,129
622,129
623,131
624,140
625,131
626,133
627,133
628,131
629,131
630,129
631,129
632,129
633,130
634,131
635,131
636,131
637,131
638,131
639,131
640,131
641,131
642,130
643,130
644,130
645,130
646,129
647,130
648,129
649,129
650,129
651,129
652,129
653,129
654,129
655,130
656,131
657,130
658,130
659,130
660,129
661,129
662,129
663,129
664,129
665,129
666,129
667,129
668,129
669,129
670,130
671,130
672,131
673,130
674,130
675,130
676,129
677,129
678,129
679,129
680,129
681,129
682,129
683,129
684,129
685,129
686,130
687,131
688,131
689,131
690,131
691,130
692,130
693,130
694,129
695,131
696,129
697,130
698,129
699,130
700,130
701,128
702,122
703,124
704,124
705,121
706,122
707,128
708,127
709,129
710,131
711,129
712,129
713,129
714,130
715,131
716,131
717,131
718,131
719,131
720,131
721,131
722,130
723,130
724,129
725,129
726,129
727,129
728,129
729,129
730,129
731,129
732,130
733,130
734,130
735,130
736,130
737,129
738,130
739,130
740,129
741,135
742,134
743,132
744,131
745,130
746,130
747,130
748,130
749,130
750,130
751,130
752,129
753,128
754,127
755,127
756,127
757,126
758,127
759,130
760,131
761,129
762,127
763,128
764,127
765,126
766,130
767,126
768,126
769,128
770,130
771,131
772,132
773,133
774,133
775,129
776,129
777,129
778,129
779,129
780,128
781,135
782,136
783,137
784,137
785,136
786,139
787,139
788,139
789,138
790,138
791,138
792,139
793,140
794,140
795,139
796,138
797,134
798,133
799,130
800,125
801,118
802,111
803,104
804,129
805,131
806,131
807,129
808,129
809,129
810,129
811,129
812,130
813,130
814,129
815,93
816,104
817,113
818,120
819,127
820,132
821,132
822,132
823,134
824,137
825,129
826,129
827,129
828,130
829,130
830,131
831,130
832,130
833,130
834,130
835,129
836,129
837,129
838,129
839,129
840,129
841,129
842,129
843,129
844,129
845,130
846,130
847,130
848,134
849,132
850,133
851,131
852,131
853,130
854,131
855,132
856,134
857,133
858,130
859,130
860,137
861,137
862,137
863,136
864,136
865,137
866,136
867,136
868,136
869,136
870,135
871,135
872,135
873,134
874,133
875,133
876,133
877,131
878,131
879,131
880,130
881,130
882,129
883,128
884,128
885,128
886,128
887,128
888,128
889,128
890,128
891,128
892,128
893,128
894,128
895,128
896,127
897,126
898,125
899,130
900,124
901,129
902,131
903,130
904,129
905,129
906,130
907,130
908,130
909,130
910,130
911,130
912,130
913,130
914,129
915,129
916,129
917,129
918,129
919,129
920,129
921,129
922,130
923,130
924,130
925,131
926,131
927,131
928,131
929,131
930,131
931,130
932,129
933,129
934,129
935,130
936,130
937,129
938,135
939,136
940,133
941,132
942,132
943,122
944,124
945,126
946,127
947,127
948,127
949,126
950,131
951,130
952,129
953,130
954,129
955,126
956,131
957,131
958,127
959,127
960,127
961,128
962,128
963,128
964,128
965,128
966,129
967,129
968,129
969,129
970,129
971,129
972,129
973,128
974,128
975,127
976,127
977,127
978,127
979,127
980,127
981,127
982,126
983,127
984,127
985,127
986,127
987,127
988,127
989,127
990,127
991,131
992,131
993,126
994,126
995,126
996,126
997,130
998,130
999,130
1000,126
1001,127
1002,127
1003,127
1004,127
1005,127
1006,127
1007,128
1008,128
1009,128
1010,128
1011,128
1012,128
1013,128
1014,128
1015,128
1016,128
1017,125
1018,125
1019,127
1020,129
1021,129
1022,128
1023,128
1024,128
1025,128
1026,128
1027,128
1028,128
1029,128
1030,128
1031,129
1032,130
1033,130
1034,130
1035,130
1036,130
1037,130
1038,130
1039,129
1040,129
1041,129
1042,129
1043,129
1044,129
1045,129
1046,129
1047,129
1048,130
1049,130
1050,130
1051,129
1052,129
1053,129
1054,129
1055,129
1056,128
1057,128
1058,129
1059,129
1060,130
1061,130
1062,130
1063,130
1064,130
1065,130
1066,130
1067,130
1068,129
1069,129
1070,129
1071,128
1072,128
1073,128
1074,128
1075,128
1076,128
1077,128
1078,128
1079,128
1080,128
1081,128
1082,128
1083,128
1084,128
1085,128
1086,128
1087,128
1088,128
1089,128
1090,128
1091,128
1092,128
1093,128
1094,128
1095,128
1096,125
1097,126
1098,129
1099,135
1100,125
1101,130
1102,130
1103,128
1104,127
1105,127
1106,127
1107,126
1108,126
1109,130
1110,126
1111,130
1112,130
1113,130
1114,131
1115,126
1116,126
1117,130
1118,130
1119,127
1120,127
1121,127
1122,126
1123,130
1124,126
1125,125
1126,122
1127,121
1128,119
1129,118
1130,117
1131,116
1132,114
1133,112
1134,111
1135,110
1136,109
1137,108
1138,109
1139,110
1140,111
1141,112
1142,113
1143,114
1144,116
1145,118
1146,119
1147,121
1148,125
1149,130
1150,126
1151,126
1152,127
1153,127
1154,127
1155,127
1156,128
1157,127
1158,127
1159,127
1160,127
1161,127
1162,128
1163,130
1164,130
1165,130
1166,130
1167,130
1168,130
1169,130
1170,131
1171,132
1172,133
1173,131
1174,127
1175,129
1176,129
1177,129
1178,118
1179,116
1180,111
1181,131
1182,129
1183,127
1184,127
1185,127
1186,127
1187,127
1188,127
1189,127
1190,129
1191,129
1192,130
1193,131
1194,94
1195,102
1196,112
1197,121
1198,128
1199,129
1200,128
1201,128
1202,128
1203,128
1204,128
1205,128
1206,128
1207,129
1208,129
1209,130
1210,130
1211,130
1212,130
1213,129
1214,128
1215,128
1216,128
1217,128
1218,129
1219,129
1220,130
1221,130
1222,130
1223,130
1224,130
1225,130
1226,130
1227,130
1228,130
1229,129
1230,129
1231,129
1232,129
1233,130
1234,130
1235,130
1236,129
1237,128
1238,127
1239,127
1240,127
1241,127
1242,127
1243,127
1244,127
1245,127
1246,127
1247,126
1248,131
1249,125
1250,125
1251,129
1252,130
1253,137
1254,134
1255,134
1256,137
1257,136
1258,131
1259,129
1260,129
1261,127
1262,127
1263,127
1264,127
1265,128
1266,124
1267,124
1268,125
1269,125
1270,125
1271,125
1272,125
1273,125
1274,124
1275,130
1276,130
1277,130
1278,131
1279,129
1280,129
1281,129
1282,129
1283,129
1284,129
1285,130
1286,130
1287,130
1288,130
1289,131
1290,130
1291,129
1292,129
1293,129
1294,129
1295,129
1296,129
1297,129
1298,129
1299,129
1300,129
1301,130
1302,130
1303,130
1304,130
1305,131
1306,130
1307,129
1308,129
1309,129
1310,129
1311,129
1312,129
1313,129
1314,129
1315,130
1316,130
1317,131
1318,130
1319,130
1320,130
1321,131
1322,125
1323,130
1324,127
1325,127
1326,127
1327,129
1328,130
1329,131
1330,133
1331,134
1332,136
1333,136
1334,137
1335,136
1336,128
1337,129
1338,129
1339,128
1340,129
1341,128
1342,127
1343,129
1344,129
1345,129
1346,130
1347,130
1348,130
1349,130
1350,130
1351,130
1352,130
1353,131
1354,130
1355,129
1356,129
1357,129
1358,129
1359,129
1360,129
1361,129
1362,129
1363,130
1364,130
1365,130
1366,130
1367,131
1368,131
1369,130
1370,129
1371,127
1372,129
1373,135
1374,132
1375,133
1376,131
1377,131
1378,130
1379,130
1380,130
1381,130
1382,131
1383,131
1384,131
1385,131
1386,131
1387,131
1388,130
1389,130
1390,130
1391,129
1392,130
1393,131
1394,131
1395,132
1396,133
1397,134
1398,135
1399,135
1400,135
1401,135
1402,135
1403,135
1404,135
1405,136
1406,136
1407,136
1408,136
1409,135
1410,136
1411,136
1412,133
1413,134
1414,134
1415,132
1416,134
1417,135
1418,136
1419,137
1420,138
1421,139
1422,140
1423,140
1424,140
1425,139
1426,138
1427,137
1428,136
1429,136
1430,136
1431,136
1432,136
1433,136
1434,137
1435,137
1436,137
1437,137
1438,137
1439,137
1440,138
1441,138
1442,139
1443,140
1444,140
1445,140
1446,140
1447,140
1448,139
1449,139
1450,138
1451,138
1452,138
1453,137
1454,137
1455,136
1456,136
1457,135
1458,135
1459,133
1460,133
1461,133
1462,133
1463,133
1464,133
1465,133
1466,133
1467,133
1468,133
1469,133
1470,133
1471,133
1472,133
1473,133
1474,134
1475,134
1476,131
1477,130
1478,130
1479,131
1480,130
1481,130
1482,130
1483,130
1484,130
1485,130
1486,129
1487,128
1488,128
1489,130
1490,137
1491,137
1492,137
1493,137
1494,137
1495,136
1496,136
1497,136
1498,136
1499,136
1500,136
1501,135
1502,135
1503,132
1504,132
1505,131
1506,130
1507,129
1508,127
1509,125
1510,125
1511,125
1512,122
1513,122
1514,123
1515,123
1516,124
1517,124
1518,125
1519,124
1520,129
1521,131
1522,126
1523,127
1524,128
1525,131
1526,132
1527,133
1528,129
1529,128
1530,130
1531,130
1532,129
1533,129
1534,129
1535,127
1536,128
1537,128
1538,127
1539,127
1540,129
1541,134
1542,132
1543,131
1544,131
1545,131
1546,133
1547,134
1548,135
1549,130
1550,129
1551,134
1552,134
1553,131
1554,128
1555,122
1556,112
1557,104
1558,129
1559,129
1560,129
1561,127
1562,127
1563,127
1564,127
1565,127
1566,127
1567,122
1568,124
1569,87
1570,96
1571,113
1572,120
1573,125
1574,131
1575,132
1576,132
1577,132
1578,131
1579,131
1580,130
1581,129
1582,128
1583,127
1584,127
1585,128
1586,129
1587,130
1588,132
1589,132
1590,132
1591,131
1592,131
1593,131
1594,130
1595,130
1596,130
1597,130
1598,131
1599,131
1600,132
1601,133
1602,131
1603,132
1604,133
1605,131
1606,132
1607,134
1608,136
1609,136
1610,136
1611,137
1612,137
1613,136
1614,136
1615,136
1616,136
1617,136
1618,137
1619,137
1620,137
1621,137
1622,136
1623,135
1624,133
1625,133
1626,133
1627,130
1628,130
1629,131
1630,131
1631,131
1632,131
1633,131
1634,130
1635,130
1636,129
1637,129
1638,129
1639,131
1640,129
1641,130
1642,129
1643,130
1644,130
1645,128
1646,135
1647,136
1648,137
1649,136
1650,136
1651,133
1652,131
1653,131
1654,130
1655,130
1656,130
1657,130
1658,130
1659,129
1660,129
1661,129
1662,128
1663,128
1664,127
1665,127
1666,127
1667,127
1668,127
1669,126
1670,127
1671,127
1672,127
1673,127
1674,126
1675,131
1676,131
1677,125
1678,130
1679,129
1680,130
1681,129
1682,130
1683,130
1684,130
1685,130
1686,130
1687,130
1688,130
1689,123
1690,124
1691,125
1692,126
1693,127
1694,128
1695,129
1696,130
1697,130
1698,131
1699,132
1700,133
1701,134
1702,129
1703,129
1704,127
1705,127
1706,127
1707,127
1708,127
1709,127
1710,127
1711,127
1712,127
1713,127
1714,127
1715,127
1716,127
1717,127
1718,129
1719,129
1720,129
1721,129
1722,130
1723,129
1724,129
1725,136
1726,136
1727,137
1728,137
1729,136
1730,130
1731,130
1732,130
1733,129
1734,129
1735,129
1736,129
1737,129
1738,130
1739,130
1740,130
1741,130
1742,130
1743,130
1744,130
1745,130
1746,129
1747,129
1748,129
1749,129
1750,129
1751,129
1752,129
1753,129
1754,129
1755,130
1756,130
1757,131
1758,130
1759,130
1760,130
1761,130
1762,129
1763,129
1764,129
1765,129
1766,129
1767,129
1768,129
1769,129
1770,129
1771,130
1772,130
1773,131
1774,130
1775,130
1776,130
1777,130
1778,129
1779,129
1780,129
1781,129
1782,129
1783,129
1784,129
1785,129
1786,129
1787,130
1788,130
1789,130
1790,131
1791,131
1792,131
1793,131
1794,131
1795,131
1796,129
1797,129
1798,129
1799,129
1800,129
1801,129
1802,129
1803,122
1804,121
1805,124
1806,124
1807,122
1808,128
1809,130
1810,130
1811,129
1812,130
1813,129
1814,130
1815,129
1816,129
1817,129
1818,129
1819,130
1820,130
1821,130
1822,130
1823,130
1824,130
1825,130
1826,129
1827,129
1828,129
1829,129
1830,129
1831,129
1832,129
1833,129
1834,130
1835,130
1836,130
1837,131
1838,130
1839,129
1840,129
1841,129
1842,129
1843,129
1844,129
1845,129
1846,129
1847,129
1848,129
1849,129
1850,130
1851,130
1852,130
1853,131
1854,130
1855,130
1856,129
1857,129
1858,129
1859,129
1860,129
1861,129
1862,129
1863,129
1864,129
1865,130
1866,130
1867,131
1868,131
1869,131
1870,131
1871,131
1872,131
1873,131
1874,131
1875,130
1876,129
1877,129
1878,129
1879,129
1880,129
1881,128
1882,122
1883,122
1884,122
1885,124
1886,124
1887,129
1888,129
1889,129
1890,129
1891,129
1892,129
1893,129
1894,129
1895,129
1896,129
1897,129
1898,130
1899,130
1900,130
1901,130
1902,130
1903,131
1904,131
1905,131
1906,131
1907,131
1908,131
1909,130
1910,129
1911,130
1912,129
1913,139
1914,135
1915,130
1916,124
1917,116
1918,106
1919,129
1920,129
1921,129
1922,129
1923,129
1924,129
1925,129
1926,129
1927,99
1928,110
1929,114
1930,122
1931,130
1932,137
1933,131
1934,129
1935,129
1936,129
1937,129
1938,129
1939,129
1940,129
1941,129
1942,129
1943,129
1944,129
1945,129
1946,130
1947,130
1948,130
1949,130
1950,129
1951,129
1952,129
1953,129
1954,130
1955,129
1956,129
1957,129
1958,129
1959,131
1960,135
1961,135
1962,133
1963,137
1964,131
1965,131
1966,129
1967,129
1968,129
1969,129
1970,129
1971,129
1972,129
1973,129
1974,129
1975,130
1976,130
1977,130
1978,130
1979,130
1980,130
1981,131
1982,131
1983,131
1984,131
1985,131
1986,131
1987,131
1988,131
1989,130
1990,129
