index,II
5,141
6,141
7,142
8,141
9,141
10,141
11,141
12,141
13,141
14,141
15,141
16,141
17,141
18,142
19,173
20,173
21,173
22,173
23,174
24,163
25,173
26,173
27,173
28,173
29,173
30,173
31,173
32,173
33,173
34,173
35,173
36,174
37,174
38,173
39,173
40,173
41,145
42,145
43,147
44,149
45,150
46,150
47,152
48,153
49,153
50,152
51,152
52,152
53,151
54,151
55,150
56,150
57,149
58,149
59,148
60,147
61,147
62,147
63,147
64,147
65,147
66,147
67,148
68,148
69,148
70,148
71,148
72,149
73,150
74,150
75,150
76,150
77,150
78,150
79,149
80,150
81,150
82,150
83,150
84,150
85,150
86,150
87,149
88,149
89,148
90,148
91,148
92,148
93,148
94,148
95,148
96,148
97,149
98,149
99,149
100,149
101,150
102,150
103,150
104,152
105,149
106,148
107,147
108,147
109,147
110,147
111,147
112,147
113,147
114,146
115,146
116,146
117,145
118,145
119,145
120,145
121,144
122,145
123,145
124,145
125,146
126,145
127,145
128,145
129,146
130,147
131,148
132,149
133,149
134,143
135,140
136,114
137,113
138,94
139,93
140,92
141,78
142,78
143,78
144,84
145,86
146,101
147,102
148,112
149,121
150,133
151,137
152,140
153,141
154,141
155,141
156,142
157,142
158,142
159,142
160,142
161,142
162,142
163,143
164,143
165,143
166,143
167,143
168,143
169,143
170,143
171,145
172,145
173,146
174,147
175,148
176,149
177,149
178,150
179,151
180,153
181,154
182,154
183,154
184,153
185,153
186,152
187,151
188,150
189,150
190,150
191,149
192,149
193,149
194,149
195,149
196,149
197,149
198,149
199,150
200,150
201,150
202,151
203,150
204,151
205,151
206,151
207,151
208,151
209,151
210,151
211,150
212,151
213,151
214,151
215,151
216,151
217,151
218,151
219,150
220,150
221,150
222,150
223,150
224,150
225,150
226,150
227,150
228,150
229,149
230,149
231,149
232,149
233,150
234,150
235,150
236,150
237,150
238,150
239,150
240,150
241,149
242,148
243,147
244,147
245,147
246,147
247,147
248,146
249,145
250,145
251,146
252,146
253,146
254,146
255,146
256,146
257,145
258,144
259,144
260,144
261,144
262,144
263,145
264,145
265,146
266,141
267,122
268,136
269,126
270,124
271,112
272,109
273,99
274,87
275,78
276,78
277,78
278,87
279,93
280,95
281,96
282,105
283,124
284,128
285,134
286,137
287,140
288,140
289,140
290,141
291,141
292,141
293,141
294,141
295,141
296,142
297,142
298,142
299,141
300,141
301,141
302,141
303,142
304,142
305,143
306,143
307,143
308,144
309,144
310,145
311,147
312,149
313,150
314,150
315,151
316,151
317,151
318,151
319,150
320,149
321,148
322,147
323,147
324,146
325,146
326,144
327,144
328,144
329,143
330,144
331,143
332,144
333,144
334,144
335,144
336,144
337,145
338,145
339,146
340,147
341,147
342,147
343,147
344,147
345,147
346,147
347,147
348,147
349,147
350,147
351,147
352,147
353,147
354,147
355,147
356,147
357,147
358,146
359,145
360,145
361,144
362,144
363,144
364,144
365,144
366,145
367,146
368,146
369,146
370,146
371,144
372,144
373,145
374,145
375,144
376,145
377,145
378,144
379,144
380,144
381,144
382,145
383,145
384,145
385,144
386,144
387,144
388,144
389,144
390,145
391,145
392,144
393,144
394,144
395,144
396,145
397,144
398,145
399,145
400,145
401,145
402,145
403,144
404,144
405,144
406,144
407,144
408,145
409,145
410,145
411,145
412,147
413,147
414,147
415,147
416,146
417,146
418,145
419,145
420,145
421,146
422,146
423,144
424,144
425,144
426,144
427,144
428,144
429,144
430,145
431,146
432,146
433,146
434,145
435,145
436,144
437,144
438,144
439,142
440,141
441,77
442,77
443,77
444,77
445,77
446,77
447,77
448,142
449,142
450,143
451,143
452,144
453,146
454,141
455,141
456,144
457,127
458,122
459,113
460,103
461,141
462,141
463,141
464,141
465,142
466,142
467,142
468,142
469,141
470,141
471,142
472,142
473,141
474,141
475,141
476,138
477,138
478,138
479,138
480,138
481,138
482,138
483,139
484,140
485,140
486,139
487,139
488,140
489,141
490,141
491,142
492,143
493,146
494,145
495,146
496,148
497,149
498,150
499,151
500,153
501,155
502,155
503,155
504,155
505,155
506,153
507,152
508,150
509,150
510,149
511,147
512,145
513,145
514,144
515,144
516,144
517,144
518,144
519,145
520,144
521,144
522,144
523,144
524,144
525,143
526,143
527,144
528,144
529,144
530,144
531,144
532,145
533,144
534,144
535,144
536,144
537,145
538,144
539,145
540,144
541,144
542,144
543,144
544,144
545,144
546,143
547,143
548,142
549,142
550,142
551,142
552,142
553,142
554,142
555,142
556,142
557,142
558,142
559,142
560,142
561,142
562,143
563,144
564,144
565,144
566,145
567,144
568,144
569,144
570,144
571,144
572,143
573,143
574,142
575,142
576,142
577,141
578,141
579,141
580,141
581,141
582,141
583,141
584,141
585,141
586,141
587,141
588,142
589,142
590,141
591,142
592,143
593,143
594,144
595,145
596,146
597,146
598,146
599,140
600,139
601,129
602,116
603,102
604,100
605,91
606,83
607,83
608,89
609,90
610,102
611,108
612,116
613,120
614,125
615,131
616,133
617,138
618,139
619,139
620,139
621,139
622,139
623,140
624,140
625,140
626,140
627,140
628,141
629,141
630,141
631,141
632,142
633,144
634,144
635,145
636,147
637,150
638,151
639,153
640,154
641,156
642,156
643,157
644,158
645,159
646,158
647,158
648,157
649,156
650,155
651,154
652,153
653,152
654,150
655,148
656,145
657,147
658,147
659,147
660,147
661,146
662,145
663,144
664,144
665,144
666,144
667,144
668,145
669,145
670,146
671,147
672,147
673,147
674,147
675,147
676,147
677,147
678,147
679,147
680,147
681,147
682,147
683,147
684,147
685,147
686,147
687,147
688,147
689,147
690,146
691,146
692,145
693,145
694,146
695,146
696,146
697,146
698,146
699,146
700,146
701,146
702,146
703,146
704,146
705,147
706,147
707,148
708,148
709,149
710,150
711,150
712,150
713,150
714,150
715,150
716,150
717,150
718,149
719,149
720,146
721,145
722,145
723,146
724,146
725,146
726,144
727,144
728,144
729,144
730,144
731,144
732,144
733,144
734,144
735,144
736,144
737,144
738,144
739,145
740,145
741,145
742,146
743,148
744,149
745,143
746,137
747,128
748,124
749,110
750,103
751,98
752,98
753,117
754,114
755,94
756,99
757,101
758,110
759,118
760,121
761,129
762,136
763,138
764,139
765,140
766,140
767,140
768,140
769,140
770,141
771,141
772,141
773,141
774,141
775,141
776,142
777,142
778,143
779,144
780,144
781,145
782,146
783,148
784,150
785,152
786,153
787,154
788,156
789,156
790,158
791,158
792,158
793,158
794,158
795,156
796,155
797,154
798,153
799,151
800,150
801,150
802,149
803,148
804,147
805,147
806,146
807,146
808,145
809,146
810,146
811,146
812,146
813,146
814,146
815,146
816,147
817,144
818,144
819,147
820,147
821,147
822,147
823,147
824,147
825,147
826,147
827,147
828,147
829,147
830,146
831,146
832,145
833,145
834,145
835,145
836,145
837,145
838,145
839,145
840,145
841,145
842,145
843,145
844,145
845,145
846,145
847,144
848,144
849,143
850,143
851,142
852,141
853,141
854,141
855,141
856,141
857,141
858,141
859,141
860,141
861,141
862,141
863,141
864,141
865,142
866,142
867,142
868,142
869,142
870,142
871,142
872,142
873,141
874,141
875,140
876,140
877,140
878,140
879,139
880,139
881,139
882,139
883,139
884,139
885,139
886,139
887,139
888,139
889,139
890,139
891,139
892,139
893,139
894,140
895,140
896,141
897,144
898,146
899,146
900,146
901,135
902,119
903,115
904,109
905,106
906,94
907,83
908,87
909,93
910,99
911,103
912,112
913,116
914,123
915,125
916,136
917,138
918,142
919,143
920,144
921,144
922,144
923,144
924,147
925,147
926,148
927,150
928,150
929,151
930,152
931,154
932,156
933,157
934,158
935,160
936,162
937,163
938,164
939,164
940,165
941,167
942,167
943,167
944,167
945,165
946,164
947,162
948,158
949,159
950,157
951,155
952,154
953,151
954,150
955,148
956,147
957,145
958,144
959,144
960,143
961,142
962,142
963,142
964,142
965,142
966,142
967,142
968,141
969,141
970,141
971,141
972,141
973,141
974,141
975,141
976,141
977,141
978,142
979,141
980,142
981,142
982,141
983,141
984,141
985,141
986,141
987,141
988,141
989,141
990,141
991,140
992,140
993,140
994,141
995,140
996,140
997,140
998,140
999,140
1000,140
1001,140
1002,140
1003,140
1004,140
1005,140
1006,140
1007,140
1008,140
1009,140
1010,140
1011,141
1012,142
1013,141
1014,141
1015,141
1016,141
1017,141
1018,141
1019,141
1020,141
1021,141
1022,140
1023,140
1024,140
1025,140
1026,140
1027,139
1028,139
1029,139
1030,139
1031,138
1032,138
1033,138
1034,138
1035,138
1036,138
1037,139
1038,139
1039,139
1040,139
1041,139
1042,139
1043,139
1044,141
1045,145
1046,146
1047,147
1048,146
1049,145
1050,130
1051,115
1052,141
1053,141
1054,141
1055,141
1056,141
1057,142
1058,142
1059,142
1060,142
1061,141
1062,140
1063,129
1064,137
1065,138
1066,141
1067,142
1068,143
1069,143
1070,144
1071,145
1072,145
1073,147
1074,147
1075,148
1076,149
1077,150
1078,152
1079,154
1080,154
1081,156
1082,158
1083,159
1084,160
1085,162
1086,164
1087,165
1088,166
1089,166
1090,166
1091,166
1092,166
1093,165
1094,163
1095,162
1096,160
1097,157
1098,156
1099,154
1100,153
1101,151
1102,149
1103,147
1104,145
1105,144
1106,143
1107,142
1108,142
1109,142
1110,153
1111,142
1112,142
1113,141
1114,141
1115,141
1116,141
1117,141
1118,141
1119,141
1120,141
1121,141
1122,141
1123,141
1124,141
1125,141
1126,141
1127,141
1128,141
1129,141
1130,141
1131,141
1132,141
1133,141
1134,141
1135,141
1136,141
1137,141
1138,141
1139,141
1140,141
1141,141
1142,140
1143,140
1144,140
1145,140
1146,140
1147,140
1148,140
1149,140
1150,140
1151,140
1152,140
1153,140
1154,140
1155,140
1156,140
1157,140
1158,140
1159,140
1160,141
1161,141
1162,141
1163,141
1164,141
1165,141
1166,141
1167,141
1168,141
1169,141
1170,141
1171,141
1172,141
1173,140
1174,140
1175,139
1176,139
1177,139
1178,139
1179,139
1180,139
1181,139
1182,139
1183,139
1184,139
1185,139
1186,139
1187,139
1188,139
1189,139
1190,139
1191,139
1192,139
1193,139
1194,139
1195,143
1196,146
1197,146
1198,147
1199,136
1200,135
1201,124
1202,114
1203,110
1204,140
1205,141
1206,141
1207,141
1208,141
1209,141
1210,141
1211,141
1212,141
1213,128
1214,134
1215,139
1216,140
1217,143
1218,144
1219,144
1220,145
1221,144
1222,146
1223,148
1224,149
1225,150
1226,151
1227,151
1228,152
1229,153
1230,154
1231,157
1232,158
1233,161
1234,163
1235,164
1236,165
1237,167
1238,169
1239,169
1240,170
1241,170
1242,169
1243,167
1244,166
1245,165
1246,164
1247,162
1248,160
1249,157
1250,156
1251,154
1252,151
1253,150
1254,149
1255,147
1256,146
1257,145
1258,142
1259,142
1260,141
1261,141
1262,141
1263,142
1264,142
1265,142
1266,142
1267,142
1268,142
1269,142
1270,142
1271,142
1272,142
1273,142
1274,142
1275,141
1276,141
1277,142
1278,142
1279,142
1280,142
1281,143
1282,143
1283,142
1284,142
1285,142
1286,142
1287,142
1288,142
1289,142
1290,142
1291,142
1292,142
1293,142
1294,142
1295,142
1296,142
1297,142
1298,142
1299,141
1300,141
1301,141
1302,141
1303,141
1304,141
1305,142
1306,141
1307,141
1308,141
1309,141
1310,141
1311,141
1312,141
1313,141
1314,141
1315,142
1316,142
1317,142
1318,143
1319,144
1320,144
1321,144
1322,144
1323,144
1324,144
1325,144
1326,144
1327,143
1328,143
1329,142
1330,142
1331,141
1332,141
1333,141
1334,141
1335,141
1336,141
1337,141
1338,140
1339,141
1340,140
1341,140
1342,140
1343,140
1344,140
1345,140
1346,140
1347,141
1348,141
1349,144
1350,147
1351,149
1352,152
1353,153
1354,141
1355,142
1356,133
1357,128
1358,114
1359,105
1360,104
1361,96
1362,97
1363,102
1364,103
1365,107
1366,111
1367,118
1368,119
1369,126
1370,127
1371,137
1372,138
1373,138
1374,138
1375,138
1376,137
1377,138
1378,138
1379,139
1380,139
1381,139
1382,139
1383,140
1384,141
1385,141
1386,142
1387,143
1388,146
1389,147
1390,149
1391,150
1392,153
1393,154
1394,156
1395,156
1396,157
1397,158
1398,158
1399,158
1400,159
1401,158
1402,156
1403,154
1404,153
1405,151
1406,149
1407,148
1408,146
1409,145
1410,144
1411,144
1412,143
1413,143
1414,142
1415,141
1416,141
1417,141
1418,141
1419,141
1420,141
1421,141
1422,141
1423,141
1424,141
1425,141
1426,141
1427,141
1428,141
1429,141
1430,141
1431,142
1432,142
1433,142
1434,142
1435,142
1436,141
1437,141
1438,141
1439,141
1440,141
1441,141
1442,141
1443,141
1444,141
1445,141
1446,141
1447,141
1448,141
1449,141
1450,141
1451,141
1452,141
1453,141
1454,141
1455,141
1456,141
1457,141
1458,141
1459,141
1460,141
1461,141
1462,141
1463,141
1464,142
1465,142
1466,142
1467,142
1468,142
1469,142
1470,142
1471,142
1472,142
1473,142
1474,142
1475,142
1476,142
1477,141
1478,141
1479,141
1480,141
1481,140
1482,140
1483,140
1484,140
1485,140
1486,140
1487,139
1488,139
1489,139
1490,139
1491,139
1492,139
1493,139
1494,139
1495,139
1496,139
1497,139
1498,144
1499,149
1500,150
1501,152
1502,152
1503,151
1504,144
1505,140
1506,127
1507,110
1508,101
1509,98
1510,97
1511,97
1512,102
1513,105
1514,111
1515,116
1516,120
1517,127
1518,132
1519,134
1520,138
1521,139
1522,140
1523,140
1524,140
1525,140
1526,140
1527,141
1528,141
1529,141
1530,141
1531,142
1532,143
1533,144
1534,144
1535,145
1536,146
1537,148
1538,151
1539,154
1540,154
1541,156
1542,157
1543,159
1544,159
1545,160
1546,161
1547,161
1548,161
1549,161
1550,158
1551,157
1552,156
1553,155
1554,154
1555,152
1556,150
1557,149
1558,148
1559,145
1560,145
1561,144
1562,144
1563,143
1564,144
1565,144
1566,144
1567,144
1568,144
1569,144
1570,144
1571,144
1572,144
1573,144
1574,144
1575,144
1576,144
1577,144
1578,144
1579,144
1580,144
1581,144
1582,144
1583,144
1584,144
1585,144
1586,143
1587,143
1588,142
1589,142
1590,142
1591,142
1592,142
1593,142
1594,142
1595,142
1596,142
1597,143
1598,141
1599,142
1600,142
1601,142
1602,141
1603,141
1604,141
1605,141
1606,141
1607,142
1608,142
1609,142
1610,143
1611,143
1612,143
1613,143
1614,144
1615,144
1616,144
1617,145
1618,144
1619,144
1620,143
1621,142
1622,142
1623,142
1624,142
1625,142
1626,142
1627,141
1628,141
1629,142
1630,141
1631,141
1632,141
1633,141
1634,141
1635,140
1636,140
1637,141
1638,140
1639,140
1640,141
1641,141
1642,142
1643,144
1644,147
1645,151
1646,154
1647,142
1648,154
1649,153
1650,144
1651,130
1652,119
1653,108
1654,107
1655,99
1656,99
1657,101
1658,103
1659,108
1660,116
1661,130
1662,125
1663,131
1664,135
1665,137
1666,139
1667,139
1668,140
1669,141
1670,141
1671,142
1672,141
1673,173
1674,173
1675,173
1676,173
1677,173
1678,173
1679,173
1680,173
1681,173
1682,173
1683,173
1684,173
1685,173
1686,173
1687,173
1688,173
1689,173
1690,173
1691,173
1692,173
1693,141
