index,II
0,210
1,210
2,210
3,210
4,210
5,474
6,454
7,454
8,468
9,467
10,467
11,467
12,462
13,454
14,458
15,469
16,471
17,471
18,474
19,475
20,462
21,473
22,461
23,461
24,461
25,472
26,472
27,471
28,473
29,462
30,459
31,463
32,463
33,462
34,462
35,474
36,464
37,464
38,463
39,462
40,460
41,464
42,465
43,459
44,463
45,456
46,463
47,462
48,462
49,469
50,470
51,471
52,464
53,473
54,463
55,464
56,464
57,465
58,474
59,472
60,453
61,477
62,475
63,457
64,464
65,463
66,472
67,463
68,460
69,459
70,477
71,473
72,475
73,472
74,465
75,466
76,470
77,466
78,473
79,465
80,470
81,468
82,457
83,474
84,455
85,465
86,472
87,475
88,469
89,466
90,473
91,474
92,462
93,468
94,471
95,462
96,471
97,476
98,454
99,473
100,462
101,456
102,462
103,453
104,458
105,458
106,462
107,458
108,456
109,459
110,460
111,475
112,461
113,461
114,461
115,460
116,461
117,461
118,475
119,467
120,465
121,475
122,474
123,475
124,463
125,455
126,475
127,475
128,475
129,461
130,467
131,459
132,459
133,460
134,461
135,461
136,460
137,474
138,474
139,474
140,471
141,461
142,474
143,210
144,210
145,210
146,210
147,210
148,210
149,210
150,210
151,210
152,210
153,210
154,210
155,210
156,210
157,210
158,210
159,210
160,210
161,210
162,210
163,210
164,210
165,210
166,210
167,210
168,210
169,210
170,245
171,210
172,210
173,210
174,210
175,210
176,210
177,210
178,210
179,210
180,210
181,210
182,210
183,210
184,210
185,210
186,210
187,247
188,210
189,248
190,246
191,210
192,210
193,210
194,210
195,248
196,248
197,248
198,248
199,248
200,210
201,210
202,247
203,210
204,248
205,210
206,210
207,246
208,210
209,210
210,210
211,210
212,248
213,210
214,210
215,210
216,210
217,210
218,210
219,210
220,210
221,210
222,210
223,245
224,210
225,210
226,210
227,210
228,210
229,210
230,210
231,243
232,243
233,248
234,248
235,243
236,243
237,210
238,210
239,247
240,210
241,246
242,248
243,210
244,210
245,210
246,210
247,243
248,248
249,248
250,243
251,247
252,210
253,210
254,246
255,210
256,243
257,248
258,210
259,210
260,210
261,210
262,210
263,210
264,210
265,210
266,210
267,210
268,210
269,210
270,210
271,210
272,210
273,210
274,210
275,210
276,210
277,210
278,210
279,210
280,210
281,210
282,210
283,210
284,210
285,210
286,210
287,210
288,210
289,210
290,210
291,210
292,210
293,210
294,210
295,210
296,210
297,244
298,244
299,244
300,244
301,248
302,244
303,210
304,210
305,210
306,210
307,210
308,210
309,247
310,210
311,210
312,210
313,210
314,210
315,210
316,210
317,248
318,210
319,246
320,210
321,210
322,210
323,210
324,210
325,210
326,248
327,210
328,210
329,210
330,248
331,248
332,248
333,210
334,247
335,210
336,210
337,210
338,210
339,210
340,210
341,210
342,210
343,210
344,210
345,210
346,210
347,210
348,210
349,210
350,210
351,210
352,210
353,210
354,210
355,210
356,210
357,210
358,210
359,210
360,210
361,210
362,210
363,210
364,210
365,210
366,210
367,210
368,210
369,210
370,210
371,210
372,210
373,210
374,210
375,210
376,210
377,210
378,210
379,210
380,210
381,210
382,210
383,210
384,210
385,210
386,210
387,210
388,210
389,210
390,210
391,210
392,210
393,210
394,210
395,210
396,210
397,210
398,210
399,210
400,210
401,210
402,210
403,210
404,210
405,210
406,210
407,210
408,210
409,210
410,210
411,210
412,210
413,210
414,210
415,210
416,210
417,210
418,210
419,210
420,210
421,210
422,210
423,210
424,210
425,210
426,210
427,210
428,210
429,210
430,210
431,210
432,210
433,210
434,210
435,210
436,210
437,210
438,210
439,210
440,210
441,210
442,210
443,210
444,210
445,210
446,210
447,210
448,210
449,210
450,248
451,249
452,249
453,249
454,249
455,249
456,247
457,247
458,247
459,249
460,249
461,249
462,249
463,249
464,248
465,210
466,210
467,210
468,210
469,210
470,210
471,210
472,210
473,210
474,210
475,210
476,210
477,210
478,210
479,210
480,210
481,210
482,210
483,210
484,210
485,210
486,210
487,210
488,210
489,210
490,210
491,210
492,210
493,210
494,248
495,249
496,249
497,249
498,249
499,249
500,248
501,248
502,248
503,249
504,249
505,249
506,249
507,249
508,248
509,227
510,227
511,227
512,227
513,227
514,227
515,227
516,227
517,210
518,227
519,227
520,227
521,227
522,227
523,227
524,227
525,227
526,227
527,227
528,227
529,210
530,210
531,210
532,210
533,210
534,210
535,210
536,210
537,210
538,210
539,210
540,210
541,210
542,210
543,210
544,210
545,210
546,210
547,210
548,210
549,210
550,210
551,210
552,210
553,210
554,249
555,249
556,249
557,249
558,249
559,249
560,249
561,249
562,249
563,249
564,249
565,249
566,249
567,249
568,249
569,249
570,210
571,210
572,210
573,210
574,210
575,210
576,210
577,210
578,210
579,210
580,223
581,224
582,224
583,224
584,224
585,221
586,210
587,222
588,222
589,222
590,222
591,222
592,222
593,210
594,220
595,222
596,248
597,248
598,248
599,248
600,210
601,248
602,248
603,248
604,248
605,222
606,221
607,248
608,248
609,248
610,248
611,248
612,247
613,247
614,248
615,248
616,246
617,245
618,222
619,219
620,210
621,210
622,210
623,210
624,210
625,210
626,210
627,210
628,210
629,210
630,210
631,210
632,210
633,210
634,210
635,210
636,210
637,210
638,210
639,210
640,210
641,210
642,210
643,210
644,210
645,210
646,210
647,247
648,247
649,246
650,246
651,246
652,246
653,247
654,247
655,210
656,210
657,210
658,210
659,210
660,210
661,210
662,210
663,210
664,210
665,210
666,210
667,210
668,210
669,210
670,210
671,210
672,210
673,210
674,210
675,210
676,210
677,210
678,210
679,210
680,210
681,210
682,210
683,210
684,210
685,210
686,247
687,248
688,248
689,249
690,249
691,249
692,249
693,249
694,248
695,248
696,247
697,243
698,243
699,242
700,210
701,210
702,210
703,210
704,210
705,210
706,210
707,210
708,210
709,210
710,220
711,220
712,219
713,219
714,223
715,223
716,223
717,247
718,224
719,225
720,224
721,224
722,247
723,248
724,248
725,248
726,248
727,248
728,248
729,248
730,248
731,247
732,227
733,226
734,225
735,225
736,247
737,247
738,247
739,247
740,247
741,247
742,247
743,247
744,247
745,247
746,247
747,247
748,247
749,247
750,247
751,247
752,247
753,247
754,247
755,247
756,247
757,247
758,247
759,247
760,247
761,247
762,247
763,247
764,247
765,247
766,247
767,247
768,247
769,247
770,247
771,247
772,247
773,247
774,247
775,247
776,247
777,247
778,247
779,247
780,247
781,247
782,247
783,247
784,247
785,247
786,247
787,247
788,247
789,247
790,247
791,247
792,247
793,247
794,247
795,247
796,247
797,247
798,247
799,247
800,247
801,247
802,247
803,247
804,247
805,247
806,247
807,247
808,247
809,247
810,247
811,247
812,247
813,247
814,247
815,247
816,247
817,247
818,247
819,247
820,247
821,247
822,247
823,247
824,247
825,247
826,247
827,247
828,247
829,247
830,247
831,247
832,247
833,247
834,247
835,247
836,247
837,247
838,247
839,247
840,247
841,247
842,247
843,247
844,247
845,247
846,246
847,210
848,210
849,210
850,210
851,210
852,210
853,210
854,210
855,210
856,210
857,210
858,210
859,210
860,210
861,210
862,224
863,224
864,247
865,248
866,248
867,249
868,249
869,249
870,249
871,249
872,248
873,248
874,247
875,243
876,243
877,242
878,227
879,227
880,227
881,227
882,227
883,226
884,226
885,226
886,210
887,210
888,210
889,210
890,210
891,210
892,210
893,210
894,210
895,210
896,210
897,210
898,210
899,210
900,210
901,210
902,210
903,210
904,210
905,210
906,210
907,222
908,223
909,225
910,226
911,226
912,226
913,226
914,226
915,226
916,226
917,226
918,226
919,226
920,226
921,226
922,226
923,224
924,224
925,246
926,246
927,244
928,244
929,245
930,245
931,246
932,249
933,249
934,249
935,249
936,249
937,249
938,249
939,249
940,210
941,210
942,210
943,210
944,210
945,210
946,210
947,210
948,210
949,210
950,226
951,226
952,226
953,226
954,226
955,226
956,226
957,226
958,556
959,556
960,555
961,226
962,226
963,226
964,226
965,226
966,226
967,226
968,226
969,226
970,226
971,226
972,226
973,226
974,210
975,210
976,210
977,210
978,248
979,249
980,249
981,249
982,249
983,249
984,249
985,249
986,249
987,249
988,249
989,249
990,249
991,249
992,249
993,249
994,248
995,225
996,226
997,226
998,227
999,227
1000,227
1001,227
1002,228
1003,228
1004,228
1005,228
1006,228
1007,228
1008,228
1009,228
1010,227
1011,227
1012,227
1013,227
1014,226
1015,226
1016,225
1017,224
1018,210
1019,210
1020,210
1021,210
1022,210
1023,210
1024,210
1025,210
1026,210
1027,210
1028,210
1029,210
1030,210
1031,210
1032,210
1033,210
1034,210
1035,210
1036,210
1037,210
1038,225
1039,225
1040,225
1041,225
1042,225
1043,227
1044,227
1045,227
1046,227
1047,227
1048,227
1049,227
1050,227
1051,227
1052,227
1053,227
1054,227
1055,227
1056,225
1057,225
1058,225
1059,225
1060,225
1061,210
1062,210
1063,210
1064,210
1065,210
1066,210
1067,210
1068,210
1069,210
1070,210
1071,210
1072,210
1073,210
1074,210
1075,210
1076,210
1077,210
1078,210
1079,210
1080,210
1081,248
1082,249
1083,249
1084,250
1085,250
1086,250
1087,250
1088,250
1089,250
1090,250
1091,250
1092,250
1093,249
1094,249
1095,248
1096,227
1097,227
1098,226
1099,226
1100,226
1101,226
1102,225
1103,225
1104,210
1105,210
1106,210
1107,210
1108,210
1109,210
1110,210
1111,210
1112,210
1113,210
1114,210
1115,210
1116,210
1117,210
1118,210
1119,210
1120,210
1121,210
1122,210
1123,210
1124,210
1125,210
1126,226
1127,227
1128,227
1129,228
1130,228
1131,228
1132,228
1133,228
1134,228
1135,228
1136,228
1137,228
1138,228
1139,228
1140,228
1141,228
1142,228
1143,228
1144,228
1145,228
1146,228
1147,227
1148,227
1149,226
1150,210
1151,210
1152,210
1153,210
1154,210
1155,210
1156,210
1157,210
1158,210
1159,210
1160,210
1161,210
1162,210
1163,210
1164,210
1165,210
1166,210
1167,210
1168,210
1169,210
1170,227
1171,228
1172,228
1173,228
1174,228
1175,228
1176,228
1177,228
1178,228
1179,228
1180,228
1181,228
1182,228
1183,228
1184,228
1185,228
1186,228
1187,228
1188,228
1189,228
1190,228
1191,228
1192,227
1193,227
1194,210
1195,210
1196,210
1197,210
1198,210
1199,210
1200,210
1201,210
1202,210
1203,210
1204,210
1205,210
1206,210
1207,210
1208,210
1209,210
1210,210
1211,210
1212,210
1213,210
1214,225
1215,225
1216,225
1217,225
1218,225
1219,225
1220,225
1221,225
1222,225
1223,226
1224,227
1225,227
1226,227
1227,225
1228,227
1229,228
1230,229
1231,229
1232,229
1233,230
1234,230
1235,230
1236,229
1237,229
1238,229
1239,229
1240,228
1241,210
1242,210
1243,210
1244,210
1245,210
1246,210
1247,210
1248,210
1249,210
1250,210
1251,210
1252,210
1253,210
1254,210
1255,210
1256,210
1257,210
1258,226
1259,226
1260,226
1261,226
1262,226
1263,226
1264,226
1265,226
1266,226
1267,226
1268,226
1269,226
1270,226
1271,226
1272,226
1273,226
1274,226
1275,226
1276,226
1277,226
1278,226
1279,226
1280,226
1281,226
1282,210
1283,210
1284,210
1285,210
1286,210
1287,210
1288,210
1289,210
1290,210
1291,210
1292,210
1293,210
1294,210
1295,210
1296,210
1297,210
1298,210
1299,210
1300,210
1301,210
1302,210
1303,227
1304,227
1305,227
1306,227
1307,227
1308,227
1309,227
1310,227
1311,227
1312,227
1313,227
1314,227
1315,227
1316,227
1317,227
1318,227
1319,227
1320,227
1321,227
1322,227
1323,227
1324,222
1325,221
1326,210
1327,210
1328,210
1329,210
1330,210
1331,210
1332,210
1333,210
1334,210
1335,210
1336,210
1337,210
1338,210
1339,210
1340,210
1341,210
1342,210
1343,210
1344,210
1345,210
1346,210
1347,224
1348,225
1349,225
1350,226
1351,226
1352,227
1353,227
1354,227
1355,227
1356,227
1357,227
1358,227
1359,227
1360,227
1361,227
1362,227
1363,227
1364,226
1365,226
1366,225
1367,225
1368,224
1369,210
1370,210
1371,210
1372,210
1373,210
1374,210
1375,210
1376,210
1377,210
1378,210
1379,210
1380,210
1381,210
1382,210
1383,210
1384,210
1385,210
1386,210
1387,210
1388,210
1389,210
1390,210
1391,226
1392,227
1393,227
1394,227
1395,227
1396,227
1397,227
1398,227
1399,227
1400,227
1401,227
1402,227
1403,227
1404,227
1405,227
1406,227
1407,227
1408,227
1409,227
1410,249
1411,249
1412,250
1413,250
1414,250
1415,250
1416,247
1417,247
1418,247
1419,250
1420,250
1421,250
1422,250
1423,250
1424,249
1425,210
1426,210
1427,210
1428,210
1429,210
1430,210
1431,210
1432,210
1433,210
1434,210
1435,210
1436,210
1437,210
1438,210
1439,210
1440,210
1441,210
1442,210
1443,210
1444,210
1445,210
1446,210
1447,210
1448,210
1449,210
1450,210
1451,210
1452,210
1453,210
1454,249
1455,249
1456,250
1457,250
1458,250
1459,250
1460,248
1461,248
1462,248
1463,250
1464,250
1465,250
1466,250
1467,250
1468,249
1469,210
1470,210
1471,210
1472,210
1473,210
1474,210
1475,210
1476,210
1477,210
1478,210
1479,210
1480,210
1481,210
1482,210
1483,210
1484,210
1485,210
1486,210
1487,210
1488,210
1489,210
1490,210
1491,210
1492,210
1493,210
1494,210
1495,210
1496,210
1497,210
1498,210
1499,210
1500,210
1501,210
1502,210
1503,210
1504,210
1505,210
1506,210
1507,210
1508,210
1509,210
1510,210
1511,210
1512,210
1513,210
1514,249
1515,249
1516,249
1517,249
1518,249
1519,249
1520,249
1521,249
1522,249
1523,249
1524,249
1525,249
1526,249
1527,249
1528,249
1529,249
1530,210
1531,210
1532,210
1533,210
1534,210
1535,210
1536,210
1537,210
1538,210
1539,210
1540,210
1541,210
1542,210
1543,210
1544,210
1545,210
1546,210
1547,210
1548,210
1549,210
1550,210
1551,210
1552,210
1553,210
1554,210
1555,210
1556,246
1557,246
1558,247
1559,248
1560,249
1561,249
1562,249
1563,245
1564,248
1565,249
1566,249
1567,249
1568,249
1569,249
1570,246
1571,248
1572,249
1573,249
1574,249
1575,249
1576,247
1577,248
1578,248
1579,249
1580,246
1581,246
1582,210
1583,210
1584,210
1585,210
1586,210
1587,210
1588,210
1589,210
1590,210
1591,210
1592,210
1593,210
1594,210
1595,210
1596,210
1597,210
1598,210
1599,210
1600,210
1601,210
1602,210
1603,210
1604,210
1605,210
1606,210
1607,247
1608,247
1609,247
1610,246
1611,246
1612,247
1613,247
1614,247
1615,210
1616,210
1617,210
1618,210
1619,210
1620,210
1621,210
1622,210
1623,210
1624,210
1625,210
1626,210
1627,210
1628,210
1629,210
1630,210
1631,210
1632,210
1633,210
1634,210
1635,210
1636,210
1637,210
1638,210
1639,210
1640,210
1641,210
1642,210
1643,210
1644,210
1645,210
1646,248
1647,249
1648,249
1649,249
1650,249
1651,249
1652,249
1653,249
1654,249
1655,249
1656,248
1657,244
1658,243
1659,243
1660,210
1661,210
1662,210
1663,210
1664,210
1665,210
1666,210
1667,210
1668,210
1669,210
1670,210
1671,210
1672,210
1673,210
1674,210
1675,210
1676,210
1677,247
1678,247
1679,247
1680,247
1681,247
1682,247
1683,247
1684,210
1685,210
1686,210
1687,210
1688,248
1689,248
1690,249
1691,249
1692,249
1693,249
1694,249
1695,249
1696,248
1697,248
1698,210
1699,210
1700,210
1701,210
1702,247
1703,247
1704,247
1705,247
1706,247
1707,247
1708,247
1709,247
1710,247
1711,247
1712,247
1713,247
1714,247
1715,247
1716,247
1717,247
1718,247
1719,247
1720,247
1721,247
1722,247
1723,247
1724,247
1725,247
1726,247
1727,247
1728,247
1729,247
1730,247
1731,247
1732,247
1733,247
1734,247
1735,247
1736,247
1737,247
1738,247
1739,247
1740,247
1741,247
1742,247
1743,247
1744,247
1745,247
1746,247
1747,247
1748,247
1749,247
1750,247
1751,247
1752,247
1753,247
1754,247
1755,247
1756,247
1757,247
1758,247
1759,247
1760,247
1761,247
1762,247
1763,247
1764,247
1765,247
1766,247
1767,247
1768,247
1769,247
1770,247
1771,247
1772,247
1773,247
1774,247
1775,247
1776,247
1777,247
1778,247
1779,247
1780,247
1781,247
1782,247
1783,247
1784,247
1785,247
1786,247
1787,247
1788,247
1789,247
1790,247
1791,247
1792,247
1793,247
1794,247
1795,247
1796,247
1797,247
1798,247
1799,247
1800,247
1801,247
1802,247
1803,247
1804,247
1805,247
1806,247
1807,210
1808,210
1809,210
1810,210
1811,210
1812,210
1813,210
1814,210
1815,210
1816,210
1817,210
1818,210
1819,210
1820,210
1821,210
1822,210
1823,210
1824,248
1825,249
1826,249
1827,249
1828,249
1829,249
1830,249
1831,249
1832,249
1833,249
1834,248
1835,244
1836,243
1837,243
1838,210
1839,219
1840,220
1841,220
1842,216
1843,216
1844,210
1845,218
1846,220
1847,220
1848,220
1849,220
1850,210
1851,210
1852,218
1853,218
1854,218
1855,210
1856,210
1857,219
1858,220
1859,220
1860,216
1861,216
1862,210
1863,219
1864,220
1865,220
1866,220
1867,219
1868,210
1869,210
1870,218
1871,218
1872,227
1873,228
1874,228
1875,224
1876,224
1877,220
1878,224
1879,228
1880,228
1881,228
1882,228
1883,225
1884,220
1885,246
1886,246
1887,244
1888,245
1889,245
1890,246
1891,246
1892,250
1893,250
1894,250
1895,250
1896,250
1897,250
1898,250
1899,250
1900,210
1901,210
1902,210
1903,210
1904,210
1905,210
1906,210
1907,210
1908,210
1909,210
1910,210
1911,210
1912,210
1913,210
1914,210
1915,210
1916,210
