I,II,III,aVR,aVL,aVF,v1,v2,v3,v4,v5,v6
-0.0005039079365079,-0.000452071062271,-0.0004014539682539,0.0004757809279609,-5.166615384615356e-05,-0.0004255326007326,-0.0006158119658119,-0.0006995126984126,-0.0006896248595848,-0.0004772825396825,-0.0005099195360195,-0.0005038542124542
-0.0004917654212454,-0.0004277995115995,-0.0003923301587301,0.000457599096459,-4.862664224664196e-05,-0.0004103349206349,-0.0006005689865689,-0.0006843063492063,-0.0006745016605616,-0.0004651985347985,-0.0005008675213675,-0.0004978195360195
-0.0004826585347985,-0.0004126297924297,-0.0003862476190476,0.0004454778754578,-4.862664224664196e-05,-0.0003981767765567,-0.0005944717948717,-0.0006721412698412,-0.0006654277411477,-0.0004561355311355,-0.0004948328449328,-0.0004917848595848
-0.0004735516483516,-0.0004035279609279,-0.000380165079365,0.0004363869597069,-4.558713064713037e-05,-0.0003920977045177,-0.0006036175824175,-0.0006660587301587,-0.0006593784615384,-0.0004500935286935,-0.0004857808302808,-0.0004827328449328
-0.0004765872771672,-0.0003883582417582,-0.0003649587301587,0.0004303263492063,-5.470566544566516e-05,-0.00037690002442,-0.0006066661782661,-0.0006569349206349,-0.0006472799023199,-0.0004380095238095,-0.0004737114774114,-0.0004736808302808
-0.0004796229059829,-0.0003822903540903,-0.0003558349206349,0.0004303263492063,-6.078468864468836e-05,-0.0003677814163614,-0.0006127633699633,-0.0006508523809523,-0.0006382059829059,-0.0004289465201465,-0.0004706941391941,-0.0004706634920634
-0.0004765872771672,-0.0003944261294261,-0.0003679999999999,0.0004333566544566,-5.470566544566516e-05,-0.0003799395604395,-0.0006402007326007,-0.0006721412698412,-0.0006503045421245,-0.0004380095238095,-0.0004797461538461,-0.0004766981684981
-0.0004796229059829,-0.0004156637362637,-0.0003923301587301,0.0004454778754578,-4.254761904761877e-05,-0.0004042558485958,-0.0006706866910866,-0.0006964714285714,-0.0006684523809523,-0.0004531145299145,-0.0004887981684981,-0.0004827328449328
-0.0004856941636141,-0.0004277995115995,-0.0003984126984126,0.0004545687912087,-4.254761904761877e-05,-0.0004133744566544,-0.0006706866910866,-0.0007025539682539,-0.0006775263003663,-0.0004591565323565,-0.0004918155067155,-0.0004857501831501
-0.0004887297924297,-0.0004460031746031,-0.0004105777777777,0.00046669001221,-3.950810744810717e-05,-0.0004285721367521,-0.000667638095238,-0.0007116777777777,-0.0006956741391941,-0.0004712405372405,-0.0005008675213675,-0.0004948021978021
-0.0004887297924297,-0.0004702747252747,-0.0004349079365079,0.0004788112332112,-2.735006105006077e-05,-0.0004528884249084,-0.0006737352869352,-0.0007268841269841,-0.0007168466178266,-0.0004923875457875,-0.0005159542124542,-0.0005098888888888
-0.000494801050061,-0.0004702747252747,-0.0004318666666666,0.0004818415384615,-3.0389572649572364e-05,-0.0004498488888888,-0.0006706866910866,-0.0007268841269841,-0.0007198712576312,-0.0004923875457875,-0.0005159542124542,-0.0005098888888888
-0.0004978366788766,-0.0004611728937728,-0.000413619047619,0.0004788112332112,-4.254761904761877e-05,-0.0004376907448107,-0.0006706866910866,-0.0007268841269841,-0.0007107973382173,-0.0004833245421245,-0.0005069021978021,-0.0005008368742368
-0.0004917654212454,-0.0004702747252747,-0.0004318666666666,0.0004788112332112,-3.0389572649572364e-05,-0.0004498488888888,-0.0006767838827838,-0.0007329666666666,-0.0007198712576312,-0.0004923875457875,-0.0005159542124542,-0.0005068715506715
-0.0004856941636141,-0.0004945462759462,-0.000459238095238,0.0004879021489621,-1.2152503052502767e-05,-0.0004772047130647,-0.0006767838827838,-0.0007390492063492,-0.000738019096459,-0.0005074925518925,-0.0005310409035409,-0.0005249755799755
-0.0004917654212454,-0.0005127499389499,-0.0004714031746031,0.0005000233699633,-9.11299145299117e-06,-0.0004924023931623,-0.0006767838827838,-0.000748173015873,-0.000747093015873,-0.0005195765567765,-0.0005431102564102,-0.0005340275946275
-0.0005039079365079,-0.0005157838827838,-0.0004622793650793,0.0005091142857142,-2.1271037851037568e-05,-0.0004893628571428,-0.0006737352869352,-0.0007512142857142,-0.000747093015873,-0.0005165555555555,-0.0005400929181929,-0.0005340275946275
-0.000519086080586,-0.0005157838827838,-0.0004531555555555,0.0005151748962148,-3.342908424908396e-05,-0.0004832837851037,-0.0006706866910866,-0.0007512142857142,-0.000747093015873,-0.0005165555555555,-0.0005400929181929,-0.0005310102564102
-0.0005281929670329,-0.0005157838827838,-0.0004409904761904,0.0005212355067155,-4.254761904761877e-05,-0.0004772047130647,-0.0006645894993894,-0.0007542555555555,-0.0007440683760683,-0.0005165555555555,-0.0005370755799755,-0.0005279929181929
-0.0005433711111111,-0.0005248857142857,-0.0004349079365079,0.0005333567277167,-5.470566544566516e-05,-0.0004802442490842,-0.0006584923076923,-0.0007542555555555,-0.000747093015873,-0.0005195765567765,-0.0005431102564102,-0.0005340275946275
-0.0005555136263736,-0.0005400554334554,-0.0004379492063492,0.0005454779487179,-5.774517704517676e-05,-0.0004893628571428,-0.0006554437118437,-0.000760338095238,-0.0007531422954822,-0.0005256185592185,-0.0005521622710622,-0.0005430796092796
-0.0005615848840048,-0.0005521912087912,-0.000447073015873,0.0005545688644688,-5.774517704517676e-05,-0.0004984814652014,-0.0006493465201465,-0.0007633793650793,-0.0007561669352869,-0.0005316605616605,-0.0005612142857142,-0.0005521316239316
-0.0005433711111111,-0.0005521912087912,-0.0004622793650793,0.0005454779487179,-3.950810744810717e-05,-0.00050760007326,-0.0006523951159951,-0.0007633793650793,-0.0007622162148962,-0.0005346815628815,-0.0005612142857142,-0.0005521316239316
-0.0005342642246642,-0.0005491572649572,-0.0004683619047619,0.0005394173382173,-3.342908424908396e-05,-0.00050760007326,-0.0006584923076923,-0.0007633793650793,-0.0007622162148962,-0.0005316605616605,-0.0005581969474969,-0.0005521316239316
-0.0005342642246642,-0.0005461233211233,-0.0004653206349206,0.0005394173382173,-3.342908424908396e-05,-0.0005045605372405,-0.0006615409035409,-0.000760338095238,-0.0007622162148962,-0.0005346815628815,-0.0005551796092796,-0.0005460969474969
-0.0005372998534798,-0.0005461233211233,-0.0004622793650793,0.0005394173382173,-3.6468595848595565e-05,-0.0005045605372405,-0.0006584923076923,-0.0007633793650793,-0.0007622162148962,-0.0005346815628815,-0.0005551796092796,-0.0005460969474969
-0.0005433711111111,-0.0005400554334554,-0.0004531555555555,0.0005394173382173,-4.558713064713037e-05,-0.0004954419291819,-0.0006554437118437,-0.0007633793650793,-0.0007591915750915,-0.0005316605616605,-0.0005551796092796,-0.0005491142857142
-0.0005342642246642,-0.0005309536019536,-0.0004531555555555,0.0005303264224664,-3.950810744810717e-05,-0.0004924023931623,-0.0006554437118437,-0.0007664206349206,-0.0007561669352869,-0.0005316605616605,-0.0005551796092796,-0.0005491142857142
-0.0005281929670329,-0.0005279196581196,-0.0004561968253968,0.0005272961172161,-3.6468595848595565e-05,-0.0004924023931623,-0.0006584923076923,-0.0007633793650793,-0.0007561669352869,-0.0005316605616605,-0.0005551796092796,-0.0005491142857142
-0.0005312285958485,-0.0005218517704517,-0.0004409904761904,0.0005242658119658,-4.558713064713037e-05,-0.0004802442490842,-0.0006584923076923,-0.000760338095238,-0.000747093015873,-0.0005225975579975,-0.0005461275946275,-0.0005400622710622
-0.0005494423687423,-0.0005157838827838,-0.0004166603174603,0.0005303264224664,-6.686371184371155e-05,-0.0004650465689865,-0.0006523951159951,-0.000760338095238,-0.000738019096459,-0.0005105135531135,-0.0005370755799755,-0.0005310102564102
-0.0005524779975579,-0.0005157838827838,-0.0004166603174603,0.0005333567277167,-6.686371184371155e-05,-0.0004650465689865,-0.0006493465201465,-0.000760338095238,-0.0007410437362637,-0.0005105135531135,-0.0005370755799755,-0.0005310102564102
-0.0005464067399267,-0.0005127499389499,-0.0004166603174603,0.0005272961172161,-6.382420024419996e-05,-0.0004650465689865,-0.0006493465201465,-0.0007542555555555,-0.0007319698168498,-0.0005074925518925,-0.0005340582417582,-0.0005340275946275
-0.0005403354822954,-0.0005006141636141,-0.0004105777777777,0.0005182052014652,-6.382420024419996e-05,-0.0004559279609279,-0.0006432493284493,-0.0007177603174603,-0.0006896248595848,-0.0004893665445665,-0.0005370755799755,-0.0005430796092796
-0.0005433711111111,-0.0004460031746031,-0.0003558349206349,0.0004939627594627,-9.421931623931596e-05,-0.0004012163125763,-0.0006310549450549,-0.0006660587301587,-0.0006170335042735,-0.0004470725274725,-0.0005159542124542,-0.0005400622710622
-0.0005312285958485,-0.0003155435897435,-0.0002372253968253,0.0004212354334554,-0.000145891013431,-0.0002765953357753,-0.0006371521367521,-0.0005778619047619,-0.0004930232722832,-0.0003504004884004,-0.000443538095238,-0.0004917848595848
-0.0004431953601953,-0.0001213711843711,-0.0001368634920634,0.0002818413919413,-0.00015197003663,-0.000127658070818,-0.0006859296703296,-0.0004562111111111,-0.0003206188034188,-0.0001721614163614,-0.0003107752136752,-0.000404282051282
-0.0003035564346764,0.0001304461538461,-2.737777777777768e-05,8.48715506715507e-05,-0.0001367724786324,5.16745543345543e-05,-0.0007895819291819,-0.0004410047619047,-0.0001361157753357,7.253968253968202e-05,-9.95615384615386e-05,-0.0002443631257631
-0.0001335612210012,0.0004793496947496,0.0001520571428571,-0.0001727043956043,-0.0001428515018315,0.0003161141880341,-0.0010212752136752,-0.0006995126984126,-3.031623931624012e-06,0.0003655768009768,0.0002051896214896,2.7197313797313198e-05
4.250525030525003e-05,0.0008009477411477,0.0002949968253968,-0.0004211894261294,-0.0001246144322344,0.0005471189255189,-0.0013688151404151,-0.0011161666666666,-6.0562637362638166e-06,0.0006314249084249,0.0005189927960927,0.0003289311355311
0.0001760729181929,0.0010345614163614,0.0003984,-0.0006030077411477,-0.0001094168742368,0.0007173329426129,-0.0017224522588522,-0.0015024079365079,-0.000108894017094,0.0008036219780219,0.0007694318681318,0.0006035089133089
0.0002246429792429,0.0010193916971916,0.0003345333333333,-0.0006211895726495,-5.470566544566516e-05,0.0006778189743589,-0.0019328053724053,-0.0017335444444444,-0.0003296927228327,0.0007069499389499,0.0007784838827838,0.0007060984126984
8.196842490842463e-05,0.0004914854700854,-5.17079365079364e-05,-0.0002848256898656,6.687479853479882e-05,0.000218849035409,-0.0018382989010989,-0.0018369476190476,-0.0007652408547008,0.0001812957264957,0.0003832125763125,0.0004767807081807
-0.0002064163125763,-5.7658363858363655e-05,-0.0003071746031746,0.0001303261294261,4.863772893772922e-05,-0.0001823697191697,-0.0016127028083028,-0.0020102999999999,-0.0012219614652014,-0.0003745684981684,-4.52494505494507e-05,0.0001931509157509
-0.0004371241025641,-0.0003003738705738,-0.0003193396825396,0.0003666899389499,-5.774517704517676e-05,-0.0003100302319902,-0.0014206412698412,-0.0020772079365079,-0.0014488094505494,-0.0006706266178266,-0.0002866365079365,1.5127960927960329e-05
-0.0005494423687423,-0.0004611728937728,-0.0003710412698412,0.0005030536752136,-8.814029304029276e-05,-0.0004164139926739,-0.0012682114774114,-0.0018734428571428,-0.0014246123321123,-0.0007672986568986,-0.0004375034188034,-0.0001508256410256
-0.0005797986568986,-0.0005157838827838,-0.0003892888888888,0.0005454779487179,-9.421931623931596e-05,-0.0004528884249084,-0.0011523648351648,-0.0015997285714285,-0.0012703557020757,-0.0007250046398046,-0.0004887981684981,-0.0002654844932844
-0.0005737273992673,-0.0005097159951159,-0.0003892888888888,0.0005394173382173,-9.117980463980436e-05,-0.0004498488888888,-0.0010182266178266,-0.0013442619047619,-0.0011130744322344,-0.0006555216117216,-0.0005008675213675,-0.0003439352869352
-0.0005524779975579,-0.000506682051282,-0.0004075365079365,0.0005272961172161,-7.294273504273476e-05,-0.0004559279609279,-0.000871894017094,-0.0011040015873015,-0.0009799902808302,-0.0006011435897435,-0.0005129368742368,-0.0004103167277167
-0.0005342642246642,-0.0004884783882783,-0.0004044952380952,0.0005091142857142,-6.382420024419996e-05,-0.0004468093528693,-0.0007469015873015,-0.0008941539682539,-0.0008620293284493,-0.0005437445665445,-0.0005099195360195,-0.0004465247863247
-0.000519086080586,-0.000452071062271,-0.0003862476190476,0.0004848718437118,-6.686371184371155e-05,-0.0004194535286935,-0.0006737352869352,-0.0007694619047619,-0.0007743147741147,-0.0004984295482295,-0.0004948328449328,-0.0004585941391941
-0.0005039079365079,-0.0004369013431013,-0.0003862476190476,0.0004697203174603,-5.774517704517676e-05,-0.0004103349206349,-0.0006462979242979,-0.000714719047619,-0.0007319698168498,-0.0004803035409035,-0.0004918155067155,-0.0004676461538461
-0.0005069435653235,-0.0004490371184371,-0.0003984126984126,0.0004757809279609,-5.470566544566516e-05,-0.000422493064713,-0.0006280063492063,-0.0006903888888888,-0.0007228958974358,-0.0004833245421245,-0.0005008675213675,-0.0004827328449328
-0.0005160504517704,-0.0004581389499389,-0.0003984126984126,0.0004848718437118,-5.774517704517676e-05,-0.0004285721367521,-0.0006158119658119,-0.0006690999999999,-0.0007168466178266,-0.0004863455433455,-0.0005069021978021,-0.0004917848595848
-0.0005281929670329,-0.0004672407814407,-0.0003953714285714,0.000496993064713,-6.686371184371155e-05,-0.0004316116727716,-0.0006066661782661,-0.0006538936507936,-0.0007077726984126,-0.0004833245421245,-0.0005099195360195,-0.0004948021978021
-0.0005342642246642,-0.0004763426129426,-0.0003953714285714,0.0005030536752136,-6.990322344322315e-05,-0.0004346512087912,-0.0005944717948717,-0.0006417285714285,-0.0007017234188034,-0.0004863455433455,-0.0005159542124542,-0.0005038542124542
-0.0005312285958485,-0.0004763426129426,-0.0003953714285714,0.0005030536752136,-6.686371184371155e-05,-0.0004346512087912,-0.0005914231990231,-0.0006295634920634,-0.0006956741391941,-0.0004863455433455,-0.0005159542124542,-0.0005068715506715
-0.0005251573382173,-0.0004702747252747,-0.0003953714285714,0.000496993064713,-6.382420024419996e-05,-0.0004316116727716,-0.0005883746031746,-0.0006234809523809,-0.0006866002197802,-0.0004803035409035,-0.0005159542124542,-0.0005038542124542
-0.0005251573382173,-0.0004702747252747,-0.0003984126984126,0.000496993064713,-6.382420024419996e-05,-0.0004346512087912,-0.0005883746031746,-0.0006173984126984,-0.0006805509401709,-0.0004772825396825,-0.0005129368742368,-0.0005068715506715
-0.000519086080586,-0.0004702747252747,-0.0004014539682539,0.0004939627594627,-5.774517704517676e-05,-0.0004346512087912,-0.0005914231990231,-0.0006113158730158,-0.0006805509401709,-0.0004772825396825,-0.0005129368742368,-0.0005098888888888
-0.0005130148229548,-0.0004702747252747,-0.0004075365079365,0.0004909324542124,-5.166615384615356e-05,-0.0004376907448107,-0.0005883746031746,-0.0006082746031746,-0.0006805509401709,-0.0004833245421245,-0.0005189715506715,-0.0005159235653235
-0.0005221217094017,-0.0004702747252747,-0.0004014539682539,0.0004939627594627,-6.078468864468836e-05,-0.0004346512087912,-0.0005822774114774,-0.0005991507936507,-0.0006775263003663,-0.0004803035409035,-0.0005189715506715,-0.0005189409035409
-0.0005251573382173,-0.0004672407814407,-0.0003953714285714,0.0004939627594627,-6.382420024419996e-05,-0.0004316116727716,-0.0005792288156288,-0.0005900269841269,-0.0006745016605616,-0.0004772825396825,-0.0005129368742368,-0.0005159235653235
-0.0005281929670329,-0.0004611728937728,-0.0003892888888888,0.0004939627594627,-6.990322344322315e-05,-0.0004255326007326,-0.0005761802197802,-0.0005869857142857,-0.0006684523809523,-0.0004712405372405,-0.0005099195360195,-0.0005098888888888
-0.000519086080586,-0.0004611728937728,-0.0003953714285714,0.0004879021489621,-6.078468864468836e-05,-0.0004285721367521,-0.0005792288156288,-0.0005839444444444,-0.0006684523809523,-0.0004742615384615,-0.0005099195360195,-0.0005098888888888
-0.0005099791941391,-0.0004611728937728,-0.0004014539682539,0.0004848718437118,-5.470566544566516e-05,-0.0004316116727716,-0.0005792288156288,-0.0005809031746031,-0.0006654277411477,-0.0004712405372405,-0.0005099195360195,-0.0005068715506715
-0.0005160504517704,-0.0004642068376068,-0.0004014539682539,0.0004879021489621,-5.774517704517676e-05,-0.0004316116727716,-0.0005761802197802,-0.0005748206349206,-0.0006593784615384,-0.0004712405372405,-0.0005099195360195,-0.0005068715506715
-0.000519086080586,-0.0004611728937728,-0.0003953714285714,0.0004879021489621,-6.078468864468836e-05,-0.0004285721367521,-0.0005761802197802,-0.0005656968253968,-0.0006593784615384,-0.0004651985347985,-0.0005099195360195,-0.0005038542124542
-0.0005130148229548,-0.0004581389499389,-0.0004014539682539,0.0004848718437118,-5.470566544566516e-05,-0.0004285721367521,-0.0005792288156288,-0.0005626555555555,-0.0006593784615384,-0.0004682195360195,-0.0005099195360195,-0.0005068715506715
-0.0004978366788766,-0.0004581389499389,-0.000413619047619,0.0004757809279609,-4.254761904761877e-05,-0.0004346512087912,-0.000585326007326,-0.0005656968253968,-0.0006654277411477,-0.0004772825396825,-0.0005189715506715,-0.0005159235653235
-0.0004978366788766,-0.0004581389499389,-0.000413619047619,0.0004757809279609,-4.254761904761877e-05,-0.0004346512087912,-0.0005822774114774,-0.0005596142857142,-0.0006654277411477,-0.0004803035409035,-0.0005250062271062,-0.0005219582417582
-0.0005069435653235,-0.000455105006105,-0.0004014539682539,0.0004788112332112,-5.166615384615356e-05,-0.0004285721367521,-0.0005761802197802,-0.0005504904761904,-0.0006563538217338,-0.0004742615384615,-0.0005189715506715,-0.0005159235653235
-0.0005130148229548,-0.000455105006105,-0.0003953714285714,0.0004818415384615,-5.774517704517676e-05,-0.0004255326007326,-0.000570083028083,-0.0005352841269841,-0.0006472799023199,-0.0004651985347985,-0.0005129368742368,-0.0005129062271062
-0.0005039079365079,-0.000455105006105,-0.0004044952380952,0.0004788112332112,-4.862664224664196e-05,-0.0004285721367521,-0.000570083028083,-0.0005261603174603,-0.0006412306227106,-0.0004621775335775,-0.0005099195360195,-0.0005129062271062
-0.0005008723076923,-0.0004581389499389,-0.0004075365079365,0.0004788112332112,-4.558713064713037e-05,-0.0004316116727716,-0.000570083028083,-0.0005170365079365,-0.0006351813431013,-0.0004621775335775,-0.0005099195360195,-0.0005129062271062
-0.0005069435653235,-0.0004611728937728,-0.0004075365079365,0.0004818415384615,-4.862664224664196e-05,-0.0004346512087912,-0.0005670344322344,-0.0005109539682539,-0.0006321567032967,-0.0004621775335775,-0.0005099195360195,-0.0005129062271062
-0.0005039079365079,-0.0004611728937728,-0.0004105777777777,0.0004818415384615,-4.558713064713037e-05,-0.0004346512087912,-0.0005639858363858,-0.0005018301587301,-0.0006321567032967,-0.0004621775335775,-0.0005099195360195,-0.0005129062271062
-0.000494801050061,-0.0004611728937728,-0.0004197015873015,0.0004757809279609,-3.6468595848595565e-05,-0.0004407302808302,-0.0005639858363858,-0.0004927063492063,-0.000629132063492,-0.0004621775335775,-0.0005129368742368,-0.0005159235653235
-0.0004917654212454,-0.000455105006105,-0.0004197015873015,0.0004727506227106,-3.6468595848595565e-05,-0.0004376907448107,-0.0005639858363858,-0.0004835825396825,-0.0006230827838827,-0.0004591565323565,-0.0005129368742368,-0.0005159235653235
-0.0005008723076923,-0.000452071062271,-0.0004044952380952,0.0004757809279609,-4.862664224664196e-05,-0.0004285721367521,-0.0005609372405372,-0.0004714174603174,-0.0006170335042735,-0.0004531145299145,-0.0005099195360195,-0.0005129062271062
-0.0004917654212454,-0.000452071062271,-0.000413619047619,0.0004697203174603,-3.950810744810717e-05,-0.0004316116727716,-0.0005578886446886,-0.0004653349206349,-0.0006200581440781,-0.0004561355311355,-0.0005129368742368,-0.0005189409035409
-0.000494801050061,-0.000455105006105,-0.000413619047619,0.0004727506227106,-3.950810744810717e-05,-0.0004346512087912,-0.0005517914529914,-0.0004531698412698,-0.0006140088644688,-0.0004561355311355,-0.0005129368742368,-0.0005189409035409
-0.0005069435653235,-0.000452071062271,-0.0003984126984126,0.0004788112332112,-5.470566544566516e-05,-0.0004255326007326,-0.000539597069597,-0.0004349222222222,-0.0006019103052503,-0.0004500935286935,-0.0005069021978021,-0.0005129062271062
-0.0004917654212454,-0.0004490371184371,-0.000413619047619,0.0004697203174603,-3.950810744810717e-05,-0.0004316116727716,-0.0005426456654456,-0.0004288396825396,-0.0006019103052503,-0.0004500935286935,-0.0005099195360195,-0.0005189409035409
-0.0004765872771672,-0.0004490371184371,-0.0004257841269841,0.0004606294017094,-2.4310549450549165e-05,-0.0004376907448107,-0.0005487428571428,-0.0004136333333333,-0.0005988856654456,-0.0004500935286935,-0.0005129368742368,-0.0005189409035409
-0.0004826585347985,-0.0004460031746031,-0.0004166603174603,0.0004636597069597,-3.342908424908396e-05,-0.0004316116727716,-0.0005456942612942,-0.0003984269841269,-0.0005928363858363,-0.0004470725274725,-0.0005099195360195,-0.0005189409035409
-0.0004887297924297,-0.0004369013431013,-0.0004044952380952,0.0004606294017094,-4.254761904761877e-05,-0.0004194535286935,-0.000539597069597,-0.0003862619047619,-0.0005867871062271,-0.0004410305250305,-0.0005069021978021,-0.0005129062271062
-0.0004917654212454,-0.0004308334554334,-0.0003892888888888,0.0004606294017094,-5.166615384615356e-05,-0.0004103349206349,-0.0005334998778998,-0.000364973015873,-0.0005746885470085,-0.0004349885225885,-0.0005008675213675,-0.0005068715506715
-0.0004856941636141,-0.0004217316239316,-0.0003892888888888,0.0004515384859584,-4.862664224664196e-05,-0.0004042558485958,-0.0005365484737484,-0.0003436841269841,-0.0005686392673992,-0.0004289465201465,-0.0004948328449328,-0.0005068715506715
-0.000470516019536,-0.0004156637362637,-0.0003984126984126,0.0004424475702075,-3.6468595848595565e-05,-0.0004072953846153,-0.000539597069597,-0.0003254365079365,-0.0005625899877899,-0.0004259255189255,-0.0004948328449328,-0.0005098888888888
-0.000470516019536,-0.0004095958485958,-0.0003953714285714,0.0004394172649572,-3.6468595848595565e-05,-0.0004012163125763,-0.0005365484737484,-0.0003071888888888,-0.0005595653479853,-0.0004259255189255,-0.0004978501831501,-0.0005129062271062
-0.0004674803907203,-0.00039746007326,-0.0003832063492063,0.0004303263492063,-4.254761904761877e-05,-0.0003890581684981,-0.0005334998778998,-0.0002858999999999,-0.0005504914285714,-0.0004229045177045,-0.0004948328449328,-0.0005098888888888
-0.0004523022466422,-0.0003853242979242,-0.0003832063492063,0.0004182051282051,-3.342908424908396e-05,-0.000382979096459,-0.0005304512820512,-0.0002615698412698,-0.0005383928693528,-0.0004138415140415,-0.0004887981684981,-0.0005068715506715
-0.0004462309890109,-0.0003853242979242,-0.0003892888888888,0.0004151748229548,-2.735006105006077e-05,-0.0003860186324786,-0.000524354090354,-0.0002341984126984,-0.0005262943101343,-0.0004047785103785,-0.0004827634920634,-0.0004978195360195
-0.0004431953601953,-0.0003853242979242,-0.0003984126984126,0.0004121445177045,-2.1271037851037568e-05,-0.0003920977045177,-0.0005182568986568,-0.0002037857142857,-0.0005141957509157,-0.0003957155067155,-0.0004737114774114,-0.0004887675213675
-0.0004371241025641,-0.0003762224664224,-0.0003892888888888,0.0004060839072039,-2.4310549450549165e-05,-0.000382979096459,-0.0005152083028083,-0.0001794555555555,-0.0005020971916971,-0.0003866525030525,-0.0004646594627594,-0.0004797155067155
-0.0004371241025641,-0.0003549848595848,-0.0003710412698412,0.0003939626862026,-3.342908424908396e-05,-0.0003617023443223,-0.0005091111111111,-0.0001490428571428,-0.0004869739926739,-0.0003775894993894,-0.0004556074481074,-0.0004706634920634
-0.0004371241025641,-0.0003337472527472,-0.0003497523809523,0.0003848717704517,-4.254761904761877e-05,-0.0003404255921855,-0.0005091111111111,-0.0001247126984126,-0.00047790007326,-0.0003685264957264,-0.000443538095238,-0.0004616114774114
-0.0004219459584859,-0.0003125096459096,-0.0003436698412698,0.0003666899389499,-3.950810744810717e-05,-0.0003282674481074,-0.0005121597069597,-0.0001034238095238,-0.0004688261538461,-0.0003624844932844,-0.0004375034188034,-0.0004555768009768
-0.0004189103296703,-0.0003034078144078,-0.000334546031746,0.0003606293284493,-4.254761904761877e-05,-0.0003191488400488,-0.0005121597069597,-8.213492063492033e-05,-0.0004597522344322,-0.0003564424908424,-0.000434486080586,-0.0004495421245421
-0.0004249815873015,-0.0002943059829059,-0.0003223809523809,0.000357599023199,-5.166615384615356e-05,-0.0003069906959706,-0.0005060625152625,-6.388730158730128e-05,-0.0004506783150183,-0.0003504004884004,-0.0004284514041514,-0.0004435074481074
-0.0004158747008547,-0.0002791362637362,-0.0003162984126984,0.0003454778021978,-4.862664224664196e-05,-0.000297872087912,-0.0005060625152625,-5.172222222222191e-05,-0.000444629035409,-0.0003443584859584,-0.0004224167277167,-0.0004374727716727
-0.0004189103296703,-0.0002670004884004,-0.0003041333333333,0.0003424474969474,-5.774517704517676e-05,-0.0002857139438339,-0.0005060625152625,-3.651587301587271e-05,-0.0004355551159951,-0.0003322744810744,-0.0004103473748473,-0.000422386080586
-0.0004067678144078,-0.0002518307692307,-0.000301092063492,0.0003272959706959,-5.166615384615356e-05,-0.0002765953357753,-0.0005091111111111,-2.130952380952351e-05,-0.0004234565567765,-0.0003171694749694,-0.0003922433455433,-0.000404282051282
-0.0004006965567765,-0.0002305931623931,-0.0002889269841269,0.0003151747496947,-5.470566544566516e-05,-0.0002583581196581,-0.0005121597069597,-1.5226984126983825e-05,-0.0004143826373626,-0.0003111274725274,-0.0003771566544566,-0.000386178021978
-0.0003976609279609,-0.0002123894993894,-0.000267638095238,0.0003030535286935,-6.382420024419996e-05,-0.0002401209035409,-0.0005121597069597,-1.5226984126983825e-05,-0.0004083333577533,-0.0003050854700854,-0.0003681046398046,-0.0003741086691086
-0.0003855184126984,-0.0001911518925518,-0.0002615555555555,0.000287902002442,-6.078468864468836e-05,-0.0002249232234432,-0.0005182568986568,-2.7392063492063188e-05,-0.0004083333577533,-0.0003020644688644,-0.0003650873015873,-0.0003650566544566
-0.000388554041514,-0.0001759821733821,-0.0002493904761904,0.0002818413919413,-6.990322344322315e-05,-0.000212765079365,-0.000524354090354,-3.955714285714255e-05,-0.0004083333577533,-0.0002960224664224,-0.0003530179487179,-0.0003560046398046
-0.0003855184126984,-0.0001608124542124,-0.0002311428571428,0.0002727504761904,-7.598224664224636e-05,-0.0001945278632478,-0.0005304512820512,-5.78047619047616e-05,-0.0004113579975579,-0.0002930014652014,-0.0003439659340659,-0.0003469526251526
-0.0003855184126984,-0.0001517106227106,-0.0002189777777777,0.0002666898656898,-8.206126984126955e-05,-0.0001854092551892,-0.000539597069597,-8.821746031746001e-05,-0.0004204319169719,-0.0002930014652014,-0.0003439659340659,-0.0003379006105006
-0.0003946252991452,-0.0001456427350427,-0.0002098539682539,0.0002697201709401,-9.117980463980436e-05,-0.0001762906471306,-0.0005456942612942,-0.0001247126984126,-0.0004264811965811,-0.0002960224664224,-0.0003409485958485,-0.0003348832722832
-0.0004067678144078,-0.0001456427350427,-0.0001946476190476,0.0002757807814407,-0.0001063773626373,-0.0001702115750915,-0.0005517914529914,-0.0001672904761904,-0.0004325304761904,-0.0002930014652014,-0.0003318965811965,-0.0003258312576312
-0.0004158747008547,-0.0001456427350427,-0.0001855238095238,0.000278811086691,-0.0001154958974358,-0.0001641325030525,-0.0005609372405372,-0.0002098682539682,-0.0004385797557997,-0.0002899804639804,-0.0003228445665445,-0.0003167792429792
-0.0004098034432234,-0.0001486766788766,-0.0001976888888888,0.000278811086691,-0.0001063773626373,-0.0001732511111111,-0.000570083028083,-0.0002585285714285,-0.0004476536752136,-0.0002899804639804,-0.0003198272283272,-0.0003107445665445
-0.0004098034432234,-0.0001699142857142,-0.0002189777777777,0.000287902002442,-9.421931623931596e-05,-0.0001945278632478,-0.0005822774114774,-0.0003102301587301,-0.0004658015140415,-0.0003050854700854,-0.0003288792429792,-0.0003167792429792
-0.0004219459584859,-0.0001911518925518,-0.000222019047619,0.0003060838339438,-0.0001002983394383,-0.000206686007326,-0.0005914231990231,-0.0003619317460317,-0.0004869739926739,-0.0003201904761904,-0.0003409485958485,-0.0003318659340659
-0.0004462309890109,-0.0002063216117216,-0.0002128952380952,0.0003242656654456,-0.0001154958974358,-0.0002097255433455,-0.0005944717948717,-0.0004136333333333,-0.0005081464713064,-0.0003322744810744,-0.0003530179487179,-0.0003409179487179
-0.0004553378754578,-0.0002275592185592,-0.0002281015873015,0.0003394171916971,-0.0001124563858363,-0.0002279627594627,-0.0006005689865689,-0.0004592523809523,-0.0005293189499389,-0.0003504004884004,-0.0003711219780219,-0.0003590219780219
-0.0004614091330891,-0.0002548647130647,-0.0002463492063492,0.000357599023199,-0.0001063773626373,-0.0002492395115995,-0.0006036175824175,-0.0004957476190476,-0.0005474667887667,-0.0003655054945054,-0.0003862086691086,-0.0003801433455433
-0.0004644447619047,-0.0002852041514041,-0.0002737206349206,0.0003727505494505,-9.421931623931596e-05,-0.0002796348717948,-0.0006127633699633,-0.0005352841269841,-0.0005777131868131,-0.0003866525030525,-0.00040733003663,-0.000404282051282
-0.000470516019536,-0.0003125096459096,-0.0002950095238095,0.0003909323809523,-8.814029304029276e-05,-0.0003039511599511,-0.0006188605616605,-0.0005717793650793,-0.0006019103052503,-0.0004108205128205,-0.0004284514041514,-0.0004254034188034
-0.0004796229059829,-0.000342849084249,-0.0003132571428571,0.0004091142124542,-8.206126984126955e-05,-0.0003282674481074,-0.0006158119658119,-0.0005991507936507,-0.0006170335042735,-0.0004259255189255,-0.0004465554334554,-0.0004435074481074
-0.0004917654212454,-0.0003701545787545,-0.0003315047619047,0.0004303263492063,-7.902175824175796e-05,-0.0003495442002442,-0.0006127633699633,-0.0006234809523809,-0.0006321567032967,-0.0004349885225885,-0.0004586247863247,-0.0004585941391941
-0.0005069435653235,-0.000400494017094,-0.0003467111111111,0.0004515384859584,-7.902175824175796e-05,-0.0003738604884004,-0.0006097147741147,-0.0006447698412698,-0.0006472799023199,-0.0004470725274725,-0.0004706941391941,-0.0004676461538461
-0.0005160504517704,-0.0004247655677655,-0.0003649587301587,0.0004697203174603,-7.598224664224636e-05,-0.0003951372405372,-0.0006127633699633,-0.0006690999999999,-0.0006654277411477,-0.0004651985347985,-0.0004857808302808,-0.0004827328449328
-0.0005130148229548,-0.0004460031746031,-0.0003862476190476,0.0004788112332112,-6.382420024419996e-05,-0.0004164139926739,-0.0006127633699633,-0.0006843063492063,-0.0006805509401709,-0.0004772825396825,-0.0004978501831501,-0.0004948021978021
-0.0005221217094017,-0.0004702747252747,-0.0004044952380952,0.0004939627594627,-5.774517704517676e-05,-0.0004376907448107,-0.0006097147741147,-0.0006903888888888,-0.0006866002197802,-0.0004833245421245,-0.0005069021978021,-0.0005038542124542
-0.0005342642246642,-0.0004884783882783,-0.0004075365079365,0.0005091142857142,-6.382420024419996e-05,-0.0004468093528693,-0.0006005689865689,-0.0006934301587301,-0.0006896248595848,-0.0004863455433455,-0.0005129368742368,-0.0005068715506715
-0.0005403354822954,-0.0004945462759462,-0.0004075365079365,0.0005151748962148,-6.686371184371155e-05,-0.0004498488888888,-0.0006005689865689,-0.0006964714285714,-0.0006926494993894,-0.0004893665445665,-0.0005129368742368,-0.0005068715506715
-0.0005342642246642,-0.0004975802197802,-0.000413619047619,0.0005151748962148,-6.078468864468836e-05,-0.0004559279609279,-0.0006036175824175,-0.0007055952380952,-0.000704748058608,-0.0004984295482295,-0.0005219888888888,-0.0005159235653235
-0.0005312285958485,-0.0005006141636141,-0.0004227428571428,0.0005151748962148,-5.470566544566516e-05,-0.000462007032967,-0.0006066661782661,-0.0007116777777777,-0.0007138219780219,-0.0005074925518925,-0.0005310409035409,-0.0005279929181929
-0.0005372998534798,-0.0005036481074481,-0.0004227428571428,0.0005182052014652,-5.774517704517676e-05,-0.000462007032967,-0.0006005689865689,-0.0007116777777777,-0.0007138219780219,-0.0005074925518925,-0.0005310409035409,-0.0005310102564102
-0.0005433711111111,-0.0005157838827838,-0.0004257841269841,0.0005272961172161,-5.774517704517676e-05,-0.0004711256410256,-0.0005944717948717,-0.000714719047619,-0.0007138219780219,-0.0005044715506715,-0.0005310409035409,-0.0005279929181929
-0.0005403354822954,-0.0005218517704517,-0.0004349079365079,0.0005303264224664,-5.166615384615356e-05,-0.0004772047130647,-0.0005944717948717,-0.000714719047619,-0.0007198712576312,-0.0005074925518925,-0.0005340582417582,-0.0005279929181929
-0.0005342642246642,-0.0005218517704517,-0.0004379492063492,0.0005272961172161,-4.862664224664196e-05,-0.0004802442490842,-0.0006005689865689,-0.0007208015873015,-0.0007289451770451,-0.0005165555555555,-0.0005400929181929,-0.0005310102564102
-0.0005433711111111,-0.0005188178266178,-0.0004288253968253,0.0005303264224664,-5.774517704517676e-05,-0.0004741651770451,-0.0006005689865689,-0.0007208015873015,-0.0007319698168498,-0.0005225975579975,-0.0005431102564102,-0.0005310102564102
-0.0005524779975579,-0.0005248857142857,-0.0004227428571428,0.000536387032967,-6.382420024419996e-05,-0.0004741651770451,-0.0005914231990231,-0.0007177603174603,-0.0007289451770451,-0.0005225975579975,-0.0005431102564102,-0.0005340275946275
-0.0005433711111111,-0.0005279196581196,-0.0004379492063492,0.0005333567277167,-5.166615384615356e-05,-0.0004832837851037,-0.0005914231990231,-0.000714719047619,-0.0007259205372405,-0.0005256185592185,-0.0005491449328449,-0.0005370449328449
-0.0005403354822954,-0.0005188178266178,-0.0004349079365079,0.0005272961172161,-5.166615384615356e-05,-0.0004772047130647,-0.0005975203907203,-0.000714719047619,-0.0007289451770451,-0.0005256185592185,-0.0005491449328449,-0.0005370449328449
-0.0005464067399267,-0.0005218517704517,-0.0004318666666666,0.0005333567277167,-5.774517704517676e-05,-0.0004772047130647,-0.0006005689865689,-0.000714719047619,-0.0007319698168498,-0.0005286395604395,-0.0005521622710622,-0.0005400622710622
-0.0005464067399267,-0.0005309536019536,-0.0004349079365079,0.000536387032967,-5.470566544566516e-05,-0.0004832837851037,-0.0005944717948717,-0.000714719047619,-0.0007289451770451,-0.0005286395604395,-0.0005551796092796,-0.0005430796092796
-0.0005433711111111,-0.0005279196581196,-0.0004379492063492,0.0005333567277167,-5.166615384615356e-05,-0.0004832837851037,-0.0005914231990231,-0.0007116777777777,-0.0007259205372405,-0.0005256185592185,-0.0005521622710622,-0.0005430796092796
-0.0005372998534798,-0.0005339875457875,-0.0004501142857142,0.0005333567277167,-4.254761904761877e-05,-0.0004924023931623,-0.0005883746031746,-0.0007086365079365,-0.0007259205372405,-0.0005256185592185,-0.0005521622710622,-0.0005460969474969
-0.0005342642246642,-0.0005370214896214,-0.0004531555555555,0.0005333567277167,-3.950810744810717e-05,-0.0004954419291819,-0.0005883746031746,-0.0007055952380952,-0.0007259205372405,-0.0005256185592185,-0.0005521622710622,-0.0005460969474969
-0.0005464067399267,-0.0005339875457875,-0.0004409904761904,0.0005394173382173,-5.166615384615356e-05,-0.0004863233211233,-0.000585326007326,-0.0007025539682539,-0.0007289451770451,-0.0005256185592185,-0.0005521622710622,-0.0005460969474969
-0.0005555136263736,-0.0005279196581196,-0.0004288253968253,0.0005394173382173,-6.382420024419996e-05,-0.0004772047130647,-0.000585326007326,-0.0007025539682539,-0.0007259205372405,-0.0005286395604395,-0.0005491449328449,-0.0005430796092796
-0.0005464067399267,-0.0005339875457875,-0.0004379492063492,0.0005394173382173,-5.470566544566516e-05,-0.0004863233211233,-0.0005883746031746,-0.0006995126984126,-0.0007228958974358,-0.0005286395604395,-0.0005521622710622,-0.0005460969474969
-0.0005464067399267,-0.0005370214896214,-0.0004440317460317,0.0005394173382173,-5.166615384615356e-05,-0.0004893628571428,-0.000585326007326,-0.0006934301587301,-0.0007168466178266,-0.0005225975579975,-0.0005491449328449,-0.0005460969474969
-0.0005555136263736,-0.0005309536019536,-0.0004318666666666,0.0005424476434676,-6.078468864468836e-05,-0.0004802442490842,-0.0005792288156288,-0.0006873476190476,-0.0007077726984126,-0.0005135345543345,-0.0005431102564102,-0.0005370449328449
-0.0005524779975579,-0.0005279196581196,-0.0004288253968253,0.0005394173382173,-6.078468864468836e-05,-0.0004772047130647,-0.0005792288156288,-0.0006843063492063,-0.000704748058608,-0.0005135345543345,-0.0005400929181929,-0.0005310102564102
-0.0005494423687423,-0.0005218517704517,-0.0004288253968253,0.0005333567277167,-6.078468864468836e-05,-0.0004741651770451,-0.0005822774114774,-0.0006843063492063,-0.0007107973382173,-0.0005225975579975,-0.0005431102564102,-0.0005400622710622
-0.0005433711111111,-0.0005188178266178,-0.0004349079365079,0.0005303264224664,-5.470566544566516e-05,-0.0004772047130647,-0.0005822774114774,-0.0006873476190476,-0.0007138219780219,-0.0005256185592185,-0.0005521622710622,-0.0005491142857142
-0.0005342642246642,-0.0005188178266178,-0.0004379492063492,0.0005242658119658,-4.862664224664196e-05,-0.0004772047130647,-0.0005822774114774,-0.0006873476190476,-0.0007168466178266,-0.0005286395604395,-0.0005551796092796,-0.0005491142857142
-0.0005342642246642,-0.0005218517704517,-0.0004379492063492,0.0005272961172161,-4.862664224664196e-05,-0.0004802442490842,-0.0005883746031746,-0.000681265079365,-0.0007138219780219,-0.0005256185592185,-0.0005551796092796,-0.0005521316239316
-0.0005342642246642,-0.0005218517704517,-0.0004409904761904,0.0005272961172161,-4.558713064713037e-05,-0.0004802442490842,-0.0005914231990231,-0.000681265079365,-0.0007138219780219,-0.0005256185592185,-0.0005551796092796,-0.0005521316239316
-0.0005312285958485,-0.0005188178266178,-0.0004409904761904,0.0005242658119658,-4.558713064713037e-05,-0.0004802442490842,-0.0005944717948717,-0.0006873476190476,-0.0007168466178266,-0.0005225975579975,-0.0005521622710622,-0.0005521316239316
-0.0005312285958485,-0.0005157838827838,-0.0004349079365079,0.0005212355067155,-4.862664224664196e-05,-0.0004741651770451,-0.0005944717948717,-0.0006873476190476,-0.0007138219780219,-0.0005165555555555,-0.0005491449328449,-0.0005491142857142
-0.0005342642246642,-0.0005036481074481,-0.0004197015873015,0.0005182052014652,-5.774517704517676e-05,-0.000462007032967,-0.0005975203907203,-0.000681265079365,-0.0007107973382173,-0.0005105135531135,-0.0005431102564102,-0.0005430796092796
-0.0005372998534798,-0.0004945462759462,-0.0004075365079365,0.0005151748962148,-6.382420024419996e-05,-0.0004498488888888,-0.0005975203907203,-0.0006782238095238,-0.000704748058608,-0.0005074925518925,-0.0005340582417582,-0.0005370449328449
-0.0005342642246642,-0.0004945462759462,-0.0004105777777777,0.0005121445909645,-6.078468864468836e-05,-0.0004528884249084,-0.0005975203907203,-0.0006782238095238,-0.0006986987789987,-0.0005014505494505,-0.0005310409035409,-0.0005340275946275
-0.0005342642246642,-0.000506682051282,-0.0004257841269841,0.0005182052014652,-5.470566544566516e-05,-0.0004650465689865,-0.0005914231990231,-0.0006751825396825,-0.0006956741391941,-0.0004984295482295,-0.0005310409035409,-0.0005310102564102
-0.0005403354822954,-0.0005157838827838,-0.0004288253968253,0.0005272961172161,-5.470566544566516e-05,-0.0004711256410256,-0.000585326007326,-0.0006721412698412,-0.0006956741391941,-0.0004954085470085,-0.0005250062271062,-0.0005249755799755
-0.0005342642246642,-0.0005097159951159,-0.0004288253968253,0.0005212355067155,-5.166615384615356e-05,-0.0004680861050061,-0.0005914231990231,-0.0006751825396825,-0.0006986987789987,-0.0004984295482295,-0.0005250062271062,-0.0005249755799755
-0.0005221217094017,-0.0004945462759462,-0.0004227428571428,0.0005060839804639,-4.862664224664196e-05,-0.0004589674969474,-0.0006036175824175,-0.0006873476190476,-0.0007107973382173,-0.0005074925518925,-0.0005310409035409,-0.0005310102564102
-0.0005251573382173,-0.0004854444444444,-0.000413619047619,0.0005030536752136,-5.470566544566516e-05,-0.0004498488888888,-0.0006097147741147,-0.0006903888888888,-0.0007138219780219,-0.0005105135531135,-0.0005310409035409,-0.0005310102564102
-0.0005342642246642,-0.0004915123321123,-0.0004105777777777,0.0005121445909645,-6.078468864468836e-05,-0.0004498488888888,-0.0006036175824175,-0.0006903888888888,-0.0007077726984126,-0.0005074925518925,-0.0005310409035409,-0.0005310102564102
-0.0005312285958485,-0.0005036481074481,-0.0004257841269841,0.0005151748962148,-5.166615384615356e-05,-0.0004650465689865,-0.0006005689865689,-0.0006903888888888,-0.000704748058608,-0.0005044715506715,-0.0005280235653235,-0.0005279929181929
-0.0005312285958485,-0.0005097159951159,-0.0004318666666666,0.0005182052014652,-4.862664224664196e-05,-0.0004711256410256,-0.0006036175824175,-0.0006903888888888,-0.0007017234188034,-0.0004954085470085,-0.0005250062271062,-0.0005219582417582
-0.0005281929670329,-0.0005036481074481,-0.0004288253968253,0.0005151748962148,-4.862664224664196e-05,-0.0004650465689865,-0.0006066661782661,-0.0006934301587301,-0.000704748058608,-0.0004923875457875,-0.0005189715506715,-0.0005159235653235
-0.0005251573382173,-0.0005006141636141,-0.0004257841269841,0.0005121445909645,-4.862664224664196e-05,-0.000462007032967,-0.0006127633699633,-0.0006995126984126,-0.0007077726984126,-0.0004954085470085,-0.0005189715506715,-0.0005159235653235
-0.0005342642246642,-0.0004945462759462,-0.0004166603174603,0.0005121445909645,-5.774517704517676e-05,-0.0004559279609279,-0.0006127633699633,-0.0007025539682539,-0.0007077726984126,-0.0004984295482295,-0.0005189715506715,-0.0005219582417582
-0.0005372998534798,-0.0004975802197802,-0.000413619047619,0.0005151748962148,-6.078468864468836e-05,-0.0004559279609279,-0.0006127633699633,-0.0007086365079365,-0.0007107973382173,-0.0004984295482295,-0.0005250062271062,-0.0005279929181929
-0.0005281929670329,-0.0005006141636141,-0.0004288253968253,0.0005121445909645,-4.862664224664196e-05,-0.0004650465689865,-0.0006127633699633,-0.0007116777777777,-0.0007198712576312,-0.0005044715506715,-0.0005280235653235,-0.0005340275946275
-0.0005221217094017,-0.0004975802197802,-0.0004318666666666,0.0005091142857142,-4.558713064713037e-05,-0.0004650465689865,-0.0006158119658119,-0.000714719047619,-0.0007228958974358,-0.0005074925518925,-0.0005310409035409,-0.0005370449328449
-0.0005281929670329,-0.000506682051282,-0.0004318666666666,0.0005151748962148,-4.862664224664196e-05,-0.0004680861050061,-0.0006158119658119,-0.000714719047619,-0.0007198712576312,-0.0005044715506715,-0.0005310409035409,-0.0005340275946275
-0.0005312285958485,-0.0005218517704517,-0.0004409904761904,0.0005242658119658,-4.558713064713037e-05,-0.0004802442490842,-0.0006097147741147,-0.0007116777777777,-0.0007168466178266,-0.0005014505494505,-0.0005280235653235,-0.0005310102564102
-0.0005342642246642,-0.0005188178266178,-0.0004379492063492,0.0005242658119658,-4.862664224664196e-05,-0.0004772047130647,-0.0006066661782661,-0.0007086365079365,-0.0007168466178266,-0.0005014505494505,-0.0005250062271062,-0.0005219582417582
-0.0005342642246642,-0.0005188178266178,-0.0004349079365079,0.0005242658119658,-4.862664224664196e-05,-0.0004772047130647,-0.0006066661782661,-0.0007116777777777,-0.0007198712576312,-0.0005014505494505,-0.0005219888888888,-0.0005189409035409
-0.0005221217094017,-0.0005157838827838,-0.000447073015873,0.0005182052014652,-3.6468595848595565e-05,-0.0004802442490842,-0.0006158119658119,-0.0007177603174603,-0.0007289451770451,-0.0005074925518925,-0.0005280235653235,-0.0005279929181929
-0.000519086080586,-0.0005188178266178,-0.0004531555555555,0.0005182052014652,-3.342908424908396e-05,-0.0004863233211233,-0.0006188605616605,-0.0007238428571428,-0.0007319698168498,-0.0005135345543345,-0.0005370755799755,-0.0005370449328449
-0.000519086080586,-0.0005188178266178,-0.0004501142857142,0.0005182052014652,-3.342908424908396e-05,-0.0004832837851037,-0.0006188605616605,-0.0007238428571428,-0.0007349944566544,-0.0005165555555555,-0.0005370755799755,-0.0005400622710622
-0.0005312285958485,-0.0005127499389499,-0.0004379492063492,0.0005212355067155,-4.558713064713037e-05,-0.0004741651770451,-0.0006158119658119,-0.0007238428571428,-0.0007319698168498,-0.0005105135531135,-0.0005310409035409,-0.0005370449328449
-0.0005433711111111,-0.0005127499389499,-0.0004288253968253,0.0005272961172161,-5.774517704517676e-05,-0.0004711256410256,-0.0006097147741147,-0.0007208015873015,-0.0007259205372405,-0.0005044715506715,-0.0005280235653235,-0.0005279929181929
-0.0005342642246642,-0.0005218517704517,-0.0004409904761904,0.0005272961172161,-4.558713064713037e-05,-0.0004802442490842,-0.0006097147741147,-0.0007177603174603,-0.0007259205372405,-0.0005074925518925,-0.0005250062271062,-0.0005279929181929
-0.0005251573382173,-0.0005339875457875,-0.0004622793650793,0.0005272961172161,-3.0389572649572364e-05,-0.0004984814652014,-0.0006158119658119,-0.0007177603174603,-0.0007289451770451,-0.0005074925518925,-0.0005280235653235,-0.0005279929181929
-0.0005281929670329,-0.0005339875457875,-0.000459238095238,0.0005303264224664,-3.342908424908396e-05,-0.0004954419291819,-0.0006158119658119,-0.0007238428571428,-0.0007349944566544,-0.0005135345543345,-0.0005310409035409,-0.0005310102564102
-0.0005342642246642,-0.0005248857142857,-0.0004440317460317,0.0005272961172161,-4.558713064713037e-05,-0.0004832837851037,-0.0006127633699633,-0.0007299253968253,-0.000738019096459,-0.0005135345543345,-0.0005370755799755,-0.0005310102564102
-0.0005372998534798,-0.0005248857142857,-0.0004409904761904,0.0005303264224664,-4.862664224664196e-05,-0.0004832837851037,-0.0006127633699633,-0.0007299253968253,-0.0007349944566544,-0.0005165555555555,-0.0005370755799755,-0.0005340275946275
-0.0005372998534798,-0.0005248857142857,-0.0004409904761904,0.0005303264224664,-4.862664224664196e-05,-0.0004832837851037,-0.0006127633699633,-0.0007299253968253,-0.0007410437362637,-0.0005195765567765,-0.0005400929181929,-0.0005370449328449
-0.0005372998534798,-0.0005279196581196,-0.0004440317460317,0.0005303264224664,-4.558713064713037e-05,-0.0004863233211233,-0.0006158119658119,-0.0007360079365079,-0.0007410437362637,-0.0005256185592185,-0.0005461275946275,-0.0005460969474969
-0.0005342642246642,-0.0005309536019536,-0.000447073015873,0.0005303264224664,-4.254761904761877e-05,-0.0004893628571428,-0.0006158119658119,-0.0007390492063492,-0.0007410437362637,-0.0005286395604395,-0.0005461275946275,-0.0005430796092796
-0.0005372998534798,-0.0005370214896214,-0.0004501142857142,0.000536387032967,-4.254761904761877e-05,-0.0004924023931623,-0.0006127633699633,-0.0007360079365079,-0.0007349944566544,-0.0005195765567765,-0.0005400929181929,-0.0005370449328449
-0.0005342642246642,-0.0005430893772893,-0.000459238095238,0.000536387032967,-3.6468595848595565e-05,-0.000501521001221,-0.0006097147741147,-0.0007299253968253,-0.0007349944566544,-0.0005165555555555,-0.0005340582417582,-0.0005310102564102
-0.0005281929670329,-0.0005339875457875,-0.0004561968253968,0.0005303264224664,-3.6468595848595565e-05,-0.0004954419291819,-0.0006127633699633,-0.0007299253968253,-0.0007349944566544,-0.0005195765567765,-0.0005340582417582,-0.0005249755799755
-0.0005281929670329,-0.0005339875457875,-0.0004561968253968,0.0005303264224664,-3.6468595848595565e-05,-0.0004954419291819,-0.0006188605616605,-0.0007329666666666,-0.0007410437362637,-0.0005225975579975,-0.0005400929181929,-0.0005310102564102
-0.0005342642246642,-0.0005370214896214,-0.0004561968253968,0.0005333567277167,-3.950810744810717e-05,-0.0004954419291819,-0.0006158119658119,-0.0007360079365079,-0.0007440683760683,-0.0005256185592185,-0.0005431102564102,-0.0005370449328449
-0.0005403354822954,-0.0005370214896214,-0.0004501142857142,0.000536387032967,-4.558713064713037e-05,-0.0004924023931623,-0.0006097147741147,-0.0007329666666666,-0.000738019096459,-0.0005165555555555,-0.0005370755799755,-0.0005340275946275
-0.0005494423687423,-0.0005370214896214,-0.0004379492063492,0.0005424476434676,-5.470566544566516e-05,-0.0004863233211233,-0.0006097147741147,-0.0007268841269841,-0.0007319698168498,-0.0005105135531135,-0.0005310409035409,-0.0005249755799755
-0.0005464067399267,-0.0005370214896214,-0.0004440317460317,0.0005394173382173,-5.166615384615356e-05,-0.0004893628571428,-0.0006097147741147,-0.0007299253968253,-0.0007319698168498,-0.0005105135531135,-0.0005310409035409,-0.0005249755799755
-0.0005312285958485,-0.0005370214896214,-0.000459238095238,0.0005333567277167,-3.6468595848595565e-05,-0.0004984814652014,-0.0006158119658119,-0.0007360079365079,-0.0007410437362637,-0.0005195765567765,-0.0005370755799755,-0.0005279929181929
-0.0005312285958485,-0.0005400554334554,-0.0004622793650793,0.0005333567277167,-3.342908424908396e-05,-0.000501521001221,-0.0006158119658119,-0.0007420904761904,-0.0007440683760683,-0.0005256185592185,-0.0005461275946275,-0.0005370449328449
-0.0005312285958485,-0.0005430893772893,-0.0004622793650793,0.000536387032967,-3.342908424908396e-05,-0.000501521001221,-0.0006127633699633,-0.0007420904761904,-0.0007440683760683,-0.0005286395604395,-0.0005491449328449,-0.0005370449328449
-0.0005342642246642,-0.0005400554334554,-0.000459238095238,0.000536387032967,-3.6468595848595565e-05,-0.0004984814652014,-0.0006127633699633,-0.0007390492063492,-0.0007410437362637,-0.0005256185592185,-0.0005431102564102,-0.0005310102564102
-0.0005342642246642,-0.0005430893772893,-0.0004622793650793,0.000536387032967,-3.6468595848595565e-05,-0.000501521001221,-0.0006127633699633,-0.0007360079365079,-0.000738019096459,-0.0005225975579975,-0.0005400929181929,-0.0005340275946275
-0.0005281929670329,-0.0005400554334554,-0.0004683619047619,0.0005333567277167,-3.0389572649572364e-05,-0.0005045605372405,-0.0006158119658119,-0.0007390492063492,-0.0007410437362637,-0.0005256185592185,-0.0005431102564102,-0.0005370449328449
-0.0005342642246642,-0.0005400554334554,-0.000459238095238,0.000536387032967,-3.6468595848595565e-05,-0.0004984814652014,-0.0006158119658119,-0.0007420904761904,-0.000747093015873,-0.0005256185592185,-0.0005431102564102,-0.0005370449328449
-0.0005433711111111,-0.0005370214896214,-0.000447073015873,0.0005394173382173,-4.862664224664196e-05,-0.0004924023931623,-0.0006127633699633,-0.0007420904761904,-0.000747093015873,-0.0005225975579975,-0.0005400929181929,-0.0005310102564102
-0.0005342642246642,-0.0005279196581196,-0.0004440317460317,0.0005303264224664,-4.558713064713037e-05,-0.0004863233211233,-0.0006127633699633,-0.0007420904761904,-0.0007440683760683,-0.0005225975579975,-0.0005370755799755,-0.0005279929181929
-0.0005312285958485,-0.0005309536019536,-0.0004501142857142,0.0005303264224664,-3.950810744810717e-05,-0.0004893628571428,-0.0006188605616605,-0.0007420904761904,-0.0007410437362637,-0.0005225975579975,-0.0005370755799755,-0.0005279929181929
-0.0005312285958485,-0.0005339875457875,-0.0004561968253968,0.0005303264224664,-3.6468595848595565e-05,-0.0004954419291819,-0.0006158119658119,-0.0007390492063492,-0.000738019096459,-0.0005195765567765,-0.0005340582417582,-0.0005310102564102
-0.0005342642246642,-0.0005400554334554,-0.000459238095238,0.000536387032967,-3.6468595848595565e-05,-0.0004984814652014,-0.0006097147741147,-0.0007390492063492,-0.0007410437362637,-0.0005225975579975,-0.0005400929181929,-0.0005340275946275
-0.0005281929670329,-0.0005370214896214,-0.0004622793650793,0.0005303264224664,-3.342908424908396e-05,-0.0004984814652014,-0.0006127633699633,-0.0007420904761904,-0.0007440683760683,-0.0005286395604395,-0.0005431102564102,-0.0005400622710622
-0.0005221217094017,-0.0005279196581196,-0.0004561968253968,0.0005242658119658,-3.342908424908396e-05,-0.0004924023931623,-0.0006158119658119,-0.0007451317460317,-0.0007440683760683,-0.0005286395604395,-0.0005431102564102,-0.0005400622710622
-0.0005342642246642,-0.0005279196581196,-0.000447073015873,0.0005303264224664,-4.254761904761877e-05,-0.0004863233211233,-0.0006127633699633,-0.0007420904761904,-0.0007410437362637,-0.0005225975579975,-0.0005370755799755,-0.0005310102564102
-0.0005372998534798,-0.0005279196581196,-0.000447073015873,0.0005303264224664,-4.558713064713037e-05,-0.0004863233211233,-0.0006158119658119,-0.0007420904761904,-0.0007410437362637,-0.0005195765567765,-0.0005370755799755,-0.0005279929181929
-0.0005312285958485,-0.0005279196581196,-0.0004531555555555,0.0005272961172161,-3.950810744810717e-05,-0.0004893628571428,-0.0006188605616605,-0.0007420904761904,-0.000747093015873,-0.0005256185592185,-0.0005370755799755,-0.0005340275946275
-0.0005281929670329,-0.0005248857142857,-0.0004561968253968,0.0005242658119658,-3.6468595848595565e-05,-0.0004893628571428,-0.0006249577533577,-0.0007451317460317,-0.000747093015873,-0.0005225975579975,-0.0005370755799755,-0.0005310102564102
-0.0005251573382173,-0.0005339875457875,-0.0004622793650793,0.0005272961172161,-3.0389572649572364e-05,-0.0004984814652014,-0.0006219091575091,-0.0007451317460317,-0.0007440683760683,-0.0005195765567765,-0.0005370755799755,-0.0005249755799755
-0.0005251573382173,-0.0005400554334554,-0.0004714031746031,0.0005303264224664,-2.735006105006077e-05,-0.0005045605372405,-0.0006188605616605,-0.0007420904761904,-0.0007440683760683,-0.0005225975579975,-0.0005400929181929,-0.0005279929181929
-0.0005312285958485,-0.0005370214896214,-0.0004561968253968,0.0005333567277167,-3.6468595848595565e-05,-0.0004954419291819,-0.0006188605616605,-0.0007451317460317,-0.000747093015873,-0.0005256185592185,-0.0005400929181929,-0.0005310102564102
-0.0005312285958485,-0.0005309536019536,-0.0004501142857142,0.0005303264224664,-3.950810744810717e-05,-0.0004893628571428,-0.0006188605616605,-0.0007451317460317,-0.0007440683760683,-0.0005225975579975,-0.0005400929181929,-0.0005310102564102
-0.0005281929670329,-0.0005339875457875,-0.000459238095238,0.0005303264224664,-3.342908424908396e-05,-0.0004954419291819,-0.0006219091575091,-0.000748173015873,-0.0007440683760683,-0.0005225975579975,-0.0005431102564102,-0.0005310102564102
-0.0005342642246642,-0.0005370214896214,-0.0004531555555555,0.0005333567277167,-3.950810744810717e-05,-0.0004954419291819,-0.0006188605616605,-0.0007420904761904,-0.0007410437362637,-0.0005195765567765,-0.0005370755799755,-0.0005249755799755
-0.0005281929670329,-0.0005309536019536,-0.0004561968253968,0.0005272961172161,-3.6468595848595565e-05,-0.0004924023931623,-0.0006188605616605,-0.0007420904761904,-0.0007410437362637,-0.0005225975579975,-0.0005370755799755,-0.0005249755799755
-0.0005251573382173,-0.0005248857142857,-0.0004501142857142,0.0005242658119658,-3.6468595848595565e-05,-0.0004863233211233,-0.0006158119658119,-0.0007420904761904,-0.0007440683760683,-0.0005316605616605,-0.0005431102564102,-0.0005340275946275
-0.0005281929670329,-0.0005218517704517,-0.000447073015873,0.0005242658119658,-3.950810744810717e-05,-0.0004832837851037,-0.0006097147741147,-0.0007360079365079,-0.0007410437362637,-0.0005286395604395,-0.0005461275946275,-0.0005340275946275
-0.0005281929670329,-0.0005188178266178,-0.000447073015873,0.0005212355067155,-3.950810744810717e-05,-0.0004832837851037,-0.0006005689865689,-0.0007268841269841,-0.0007349944566544,-0.0005195765567765,-0.0005370755799755,-0.0005249755799755
-0.0005221217094017,-0.0005097159951159,-0.000447073015873,0.0005151748962148,-3.6468595848595565e-05,-0.0004772047130647,-0.0005975203907203,-0.0007208015873015,-0.0007289451770451,-0.0005105135531135,-0.0005280235653235,-0.0005159235653235
-0.0005130148229548,-0.0005006141636141,-0.0004440317460317,0.0005060839804639,-3.342908424908396e-05,-0.0004711256410256,-0.0005975203907203,-0.000714719047619,-0.0007198712576312,-0.0005014505494505,-0.0005159542124542,-0.0005068715506715
-0.0005069435653235,-0.0004884783882783,-0.0004349079365079,0.000496993064713,-3.6468595848595565e-05,-0.000462007032967,-0.000585326007326,-0.0006995126984126,-0.000704748058608,-0.0004893665445665,-0.0005069021978021,-0.0005008368742368
-0.0005008723076923,-0.0004672407814407,-0.0004197015873015,0.0004818415384615,-3.950810744810717e-05,-0.0004437698168498,-0.000570083028083,-0.0006873476190476,-0.0006896248595848,-0.0004803035409035,-0.0005008675213675,-0.0004978195360195
-0.0005008723076923,-0.000452071062271,-0.0004044952380952,0.0004757809279609,-4.862664224664196e-05,-0.0004285721367521,-0.0005670344322344,-0.0006751825396825,-0.0006835755799755,-0.0004712405372405,-0.0004948328449328,-0.0004917848595848
-0.0004978366788766,-0.0004369013431013,-0.0003953714285714,0.00046669001221,-5.166615384615356e-05,-0.0004164139926739,-0.0005792288156288,-0.0006690999999999,-0.0006805509401709,-0.0004682195360195,-0.0004918155067155,-0.0004887675213675
-0.0004765872771672,-0.0004247655677655,-0.0003984126984126,0.0004485081807081,-3.950810744810717e-05,-0.0004103349206349,-0.0005944717948717,-0.0006660587301587,-0.0006745016605616,-0.0004682195360195,-0.0004948328449328,-0.0004917848595848
-0.0004583735042735,-0.0004247655677655,-0.000413619047619,0.0004394172649572,-2.1271037851037568e-05,-0.0004194535286935,-0.0006127633699633,-0.0006690999999999,-0.000671477020757,-0.0004682195360195,-0.0004918155067155,-0.0004917848595848
-0.0004553378754578,-0.0004429692307692,-0.0004379492063492,0.0004485081807081,-9.11299145299117e-06,-0.0004407302808302,-0.0006432493284493,-0.0006873476190476,-0.0006805509401709,-0.0004712405372405,-0.0004978501831501,-0.0004948021978021
-0.0004674803907203,-0.0004581389499389,-0.0004440317460317,0.0004606294017094,-1.2152503052502767e-05,-0.0004498488888888,-0.0006584923076923,-0.0007086365079365,-0.0006986987789987,-0.0004863455433455,-0.0005069021978021,-0.0004978195360195
-0.0004796229059829,-0.0004672407814407,-0.0004349079365079,0.0004727506227106,-2.1271037851037568e-05,-0.0004498488888888,-0.0006584923076923,-0.000714719047619,-0.000704748058608,-0.0004893665445665,-0.0005069021978021,-0.0004948021978021
-0.0004887297924297,-0.0004854444444444,-0.0004501142857142,0.0004848718437118,-1.823152625152597e-05,-0.0004680861050061,-0.0006523951159951,-0.0007177603174603,-0.0007107973382173,-0.0004923875457875,-0.0005099195360195,-0.0004978195360195
-0.000494801050061,-0.0005157838827838,-0.0004744444444444,0.0005030536752136,-9.11299145299117e-06,-0.0004954419291819,-0.0006493465201465,-0.0007268841269841,-0.0007198712576312,-0.0005044715506715,-0.0005189715506715,-0.0005068715506715
-0.0004917654212454,-0.0005127499389499,-0.0004714031746031,0.0005000233699633,-9.11299145299117e-06,-0.0004924023931623,-0.0006493465201465,-0.0007238428571428,-0.0007259205372405,-0.0005074925518925,-0.0005250062271062,-0.0005098888888888
-0.0004826585347985,-0.0004975802197802,-0.0004622793650793,0.0004879021489621,-9.11299145299117e-06,-0.0004802442490842,-0.0006554437118437,-0.0007329666666666,-0.0007319698168498,-0.0005105135531135,-0.0005280235653235,-0.0005159235653235
-0.0004826585347985,-0.000506682051282,-0.0004774857142857,0.0004939627594627,-3.03396825396797e-06,-0.0004924023931623,-0.0006615409035409,-0.0007420904761904,-0.0007440683760683,-0.0005256185592185,-0.0005431102564102,-0.0005310102564102
-0.0004917654212454,-0.0005279196581196,-0.0004866095238095,0.0005091142857142,-3.03396825396797e-06,-0.00050760007326,-0.0006615409035409,-0.000748173015873,-0.0007531422954822,-0.0005377025641025,-0.0005521622710622,-0.0005400622710622
-0.0005039079365079,-0.0005400554334554,-0.0004866095238095,0.0005212355067155,-9.11299145299117e-06,-0.0005136791452991,-0.0006554437118437,-0.0007512142857142,-0.0007531422954822,-0.0005407235653235,-0.0005551796092796,-0.0005340275946275
-0.0005130148229548,-0.0005430893772893,-0.0004835682539682,0.0005272961172161,-1.5192014652014368e-05,-0.0005136791452991,-0.0006523951159951,-0.0007572968253968,-0.0007591915750915,-0.0005467655677655,-0.0005581969474969,-0.0005310102564102
-0.0005221217094017,-0.0005461233211233,-0.0004774857142857,0.0005333567277167,-2.1271037851037568e-05,-0.0005106396092796,-0.0006493465201465,-0.000760338095238,-0.0007591915750915,-0.0005437445665445,-0.0005551796092796,-0.0005310102564102
-0.0005312285958485,-0.000558259096459,-0.0004774857142857,0.0005424476434676,-2.735006105006077e-05,-0.0005167186813186,-0.0006432493284493,-0.0007572968253968,-0.0007531422954822,-0.0005377025641025,-0.0005521622710622,-0.0005340275946275
-0.0005433711111111,-0.0005794967032967,-0.0004896507936507,0.0005606294749694,-2.735006105006077e-05,-0.0005349558974358,-0.0006371521367521,-0.0007542555555555,-0.0007531422954822,-0.0005407235653235,-0.0005551796092796,-0.0005430796092796
-0.0005494423687423,-0.0005916324786324,-0.0004957333333333,0.0005697203907203,-2.735006105006077e-05,-0.0005440745054945,-0.0006402007326007,-0.000760338095238,-0.0007591915750915,-0.0005467655677655,-0.0005612142857142,-0.0005491142857142
-0.0005372998534798,-0.0005885985347985,-0.0005078984126984,0.0005606294749694,-1.5192014652014368e-05,-0.000547114041514,-0.0006432493284493,-0.0007664206349206,-0.0007682654945054,-0.0005528075702075,-0.0005702663003663,-0.0005581663003663
-0.0005342642246642,-0.0005825306471306,-0.0004987746031746,0.0005575991697191,-1.823152625152597e-05,-0.0005410349694749,-0.0006432493284493,-0.0007694619047619,-0.0007712901343101,-0.0005558285714285,-0.0005732836385836,-0.0005581663003663
-0.0005524779975579,-0.0005673609279609,-0.0004683619047619,0.0005575991697191,-4.254761904761877e-05,-0.0005167186813186,-0.0006402007326007,-0.0007633793650793,-0.0007682654945054,-0.0005497865689865,-0.0005642316239316,-0.0005460969474969
-0.0005524779975579,-0.0005643269841269,-0.0004622793650793,0.0005575991697191,-4.558713064713037e-05,-0.0005136791452991,-0.0006432493284493,-0.000760338095238,-0.0007652408547008,-0.0005467655677655,-0.0005581969474969,-0.0005400622710622
-0.0005524779975579,-0.0005734288156288,-0.0004714031746031,0.0005606294749694,-3.950810744810717e-05,-0.0005227977533577,-0.0006432493284493,-0.000760338095238,-0.0007622162148962,-0.0005467655677655,-0.0005581969474969,-0.0005400622710622
-0.0005403354822954,-0.0005825306471306,-0.0004896507936507,0.0005606294749694,-2.4310549450549165e-05,-0.0005349558974358,-0.0006462979242979,-0.000760338095238,-0.0007561669352869,-0.0005467655677655,-0.0005612142857142,-0.0005430796092796
-0.0005342642246642,-0.0005825306471306,-0.0004987746031746,0.0005575991697191,-1.823152625152597e-05,-0.0005410349694749,-0.0006462979242979,-0.000760338095238,-0.0007561669352869,-0.0005467655677655,-0.0005612142857142,-0.0005460969474969
-0.0005342642246642,-0.0005703948717948,-0.0004866095238095,0.0005515385592185,-2.4310549450549165e-05,-0.0005288768253968,-0.0006462979242979,-0.0007633793650793,-0.0007622162148962,-0.0005528075702075,-0.0005672489621489,-0.0005521316239316
-0.0005281929670329,-0.0005521912087912,-0.0004714031746031,0.0005394173382173,-2.735006105006077e-05,-0.0005106396092796,-0.0006523951159951,-0.0007664206349206,-0.0007622162148962,-0.0005497865689865,-0.0005672489621489,-0.0005551489621489
-0.0005251573382173,-0.0005521912087912,-0.0004774857142857,0.000536387032967,-2.4310549450549165e-05,-0.0005136791452991,-0.0006584923076923,-0.0007633793650793,-0.0007561669352869,-0.0005467655677655,-0.0005672489621489,-0.0005551489621489
-0.0005433711111111,-0.000561293040293,-0.0004683619047619,0.0005515385592185,-3.6468595848595565e-05,-0.0005136791452991,-0.0006462979242979,-0.0007572968253968,-0.0007440683760683,-0.0005377025641025,-0.0005581969474969,-0.0005430796092796
-0.0005646205128205,-0.0005521912087912,-0.0004379492063492,0.0005575991697191,-6.382420024419996e-05,-0.0004954419291819,-0.0006341035409035,-0.0007390492063492,-0.0007228958974358,-0.0005195765567765,-0.0005461275946275,-0.0005340275946275
-0.0005676561416361,-0.0005218517704517,-0.0004105777777777,0.0005424476434676,-7.902175824175796e-05,-0.0004650465689865,-0.0006249577533577,-0.0007055952380952,-0.000671477020757,-0.0004923875457875,-0.0005370755799755,-0.0005370449328449
-0.0005464067399267,-0.0004399352869352,-0.0003467111111111,0.0004909324542124,-0.0001002983394383,-0.0003920977045177,-0.0006371521367521,-0.0006660587301587,-0.000595861025641,-0.0004470725274725,-0.0005099195360195,-0.0005310102564102
-0.0004796229059829,-0.0003003738705738,-0.0002706793650793,0.000387902075702,-0.0001033378510378,-0.0002857139438339,-0.0006737352869352,-0.0005596142857142,-0.0004748754334554,-0.0003383164835164,-0.0004314687423687,-0.0004857501831501
-0.0003612333821733,-0.0001001335775335,-0.0001916063492063,0.0002303262026862,-8.510078144078116e-05,-0.0001458952869352,-0.0007347072039072,-0.0004166746031746,-0.0002843231257631,-0.0001298673992673,-0.0002745671550671,-0.0003831606837606
-0.0002155231990231,0.0002153965811965,-2.433650793650784e-05,2.300366300369205e-08,-9.421931623931596e-05,9.422805860805856e-05,-0.0008810398046398,-0.0004714174603174,-9.074617826617834e-05,0.0001631697191697,-3.006715506715661e-06,-0.0001598776556776
-6.677738705738732e-05,0.0006037413919413,0.0002098412698412,-0.0002666438583638,-0.0001367724786324,0.0004073002686202,-0.0011462676434676,-0.0007755444444444,3.628869352869345e-05,0.0004954798534798,0.0003470045177045,0.0001629775335775
8.500405372405345e-05,0.0009132036630036,0.0003619047619047,-0.000496947057387,-0.0001367724786324,0.000638305006105,-0.0014907589743589,-0.0011709095238095,1.5116214896214815e-05,0.0007552859584859,0.0006668423687423,0.0004767807081807
0.0001882154334554,0.0010831045177045,0.0004348952380952,-0.0006333107936507,-0.0001215749206349,0.0007598864468864,-0.0017956185592185,-0.0015024079365079,-0.0001209925763125,0.0008489369963369,0.0008478826617826,0.0007091157509157
0.000166966031746,0.0008494908424908,0.0002220063492063,-0.0005060379731379,-2.735006105006077e-05,0.0005349607814407,-0.0018687848595848,-0.0016666365079365,-0.0004234565567765,0.0005589208791208,0.0006758943833943,0.0006638556776556
-4.552798534798562e-05,0.0002153965811965,-0.0001976888888888,-8.482554334554332e-05,7.599333333333362e-05,9.121050061050025e-06,-0.0016706261294261,-0.001785246031746,-0.0009013496459096,-4.830036630036682e-05,0.0001991549450549,0.0003560871794871
-0.0003156989499389,-0.0001426087912087,-0.0002828444444444,0.0002272958974358,-1.5192014652014368e-05,-0.000212765079365,-0.0014755159951159,-0.0019859698412698,-0.0012945528205128,-0.0005014505494505,-0.0001357695970695,0.0001418561660561
-0.000494801050061,-0.0003034078144078,-0.0002645968253968,0.0003969929914529,-0.0001154958974358,-0.0002826744078144,-0.0013200376068376,-0.0019585984126984,-0.0014155384126984,-0.0007038576312576,-0.0003168098901098,-1.2028083028083627e-05
-0.0005676561416361,-0.0004581389499389,-0.0003436698412698,0.0005121445909645,-0.0001124563858363,-0.0004012163125763,-0.0011950451770451,-0.0017213793650793,-0.001342947057387,-0.0007491726495726,-0.0004405207570207,-0.000171947008547
-0.0005737273992673,-0.0005218517704517,-0.0004075365079365,0.0005454779487179,-8.206126984126955e-05,-0.0004650465689865,-0.0011066358974358,-0.0014872015873015,-0.0012189368253968,-0.0007189626373626,-0.0005069021978021,-0.0002986752136752
-0.0005615848840048,-0.0005400554334554,-0.0004318666666666,0.0005485082539682,-6.382420024419996e-05,-0.0004863233211233,-0.0009907892551892,-0.0012682301587301,-0.0010919019536019,-0.0006676056166056,-0.0005310409035409,-0.0003801433455433
-0.0005555136263736,-0.0005552251526251,-0.0004531555555555,0.0005545688644688,-5.166615384615356e-05,-0.0005045605372405,-0.000841408058608,-0.0010401349206349,-0.0009588178021978,-0.0006162485958485,-0.0005400929181929,-0.0004374727716727
-0.0005403354822954,-0.0005370214896214,-0.0004501142857142,0.000536387032967,-4.558713064713037e-05,-0.0004924023931623,-0.0007255614163614,-0.0008515761904761,-0.0008469061294261,-0.0005618705738705,-0.0005370755799755,-0.0004676461538461
-0.000519086080586,-0.0004884783882783,-0.0004227428571428,0.0005030536752136,-4.862664224664196e-05,-0.0004559279609279,-0.0006706866910866,-0.000748173015873,-0.0007712901343101,-0.0005195765567765,-0.0005189715506715,-0.0004736808302808
-0.0005130148229548,-0.0004763426129426,-0.0004197015873015,0.0004939627594627,-4.558713064713037e-05,-0.0004468093528693,-0.0006432493284493,-0.0007055952380952,-0.0007349944566544,-0.0005044715506715,-0.0005129368742368,-0.0004797155067155
-0.0005130148229548,-0.0004945462759462,-0.0004349079365079,0.0005030536752136,-3.950810744810717e-05,-0.0004650465689865,-0.0006310549450549,-0.0006873476190476,-0.0007228958974358,-0.0005044715506715,-0.0005219888888888,-0.0004917848595848
-0.000519086080586,-0.0005006141636141,-0.0004409904761904,0.0005091142857142,-3.950810744810717e-05,-0.0004711256410256,-0.0006249577533577,-0.0006660587301587,-0.0007107973382173,-0.0005014505494505,-0.0005189715506715,-0.0004948021978021
-0.0005281929670329,-0.000506682051282,-0.0004318666666666,0.0005151748962148,-4.862664224664196e-05,-0.0004680861050061,-0.0006188605616605,-0.0006447698412698,-0.0007017234188034,-0.0004984295482295,-0.0005189715506715,-0.0004978195360195
-0.0005312285958485,-0.0005127499389499,-0.0004318666666666,0.0005212355067155,-4.862664224664196e-05,-0.0004711256410256,-0.0006097147741147,-0.0006386873015873,-0.0007017234188034,-0.0005044715506715,-0.0005280235653235,-0.0005129062271062
-0.0005281929670329,-0.000506682051282,-0.0004318666666666,0.0005151748962148,-4.862664224664196e-05,-0.0004680861050061,-0.0006036175824175,-0.000635646031746,-0.000704748058608,-0.0005165555555555,-0.0005400929181929,-0.0005279929181929
-0.0005221217094017,-0.0004945462759462,-0.0004257841269841,0.0005060839804639,-4.862664224664196e-05,-0.0004589674969474,-0.0006036175824175,-0.0006295634920634,-0.0006956741391941,-0.0005105135531135,-0.0005431102564102,-0.0005310102564102
-0.0005130148229548,-0.0005006141636141,-0.0004379492063492,0.0005060839804639,-3.6468595848595565e-05,-0.0004680861050061,-0.0006005689865689,-0.0006204396825396,-0.0006866002197802,-0.0005044715506715,-0.0005431102564102,-0.0005279929181929
-0.0005221217094017,-0.0005127499389499,-0.0004409904761904,0.0005151748962148,-3.950810744810717e-05,-0.0004772047130647,-0.0005975203907203,-0.0006113158730158,-0.0006805509401709,-0.0005044715506715,-0.0005370755799755,-0.0005249755799755
-0.0005281929670329,-0.000506682051282,-0.0004288253968253,0.0005151748962148,-4.862664224664196e-05,-0.0004680861050061,-0.0005975203907203,-0.0006082746031746,-0.0006745016605616,-0.0005014505494505,-0.0005340582417582,-0.0005219582417582
-0.0005221217094017,-0.000506682051282,-0.0004349079365079,0.0005121445909645,-4.254761904761877e-05,-0.0004711256410256,-0.0005944717948717,-0.0006052333333333,-0.0006745016605616,-0.0005044715506715,-0.0005370755799755,-0.0005249755799755
-0.0005160504517704,-0.0005097159951159,-0.000447073015873,0.0005121445909645,-3.342908424908396e-05,-0.0004772047130647,-0.0005914231990231,-0.000602192063492,-0.0006745016605616,-0.0005074925518925,-0.0005400929181929,-0.0005249755799755
-0.0005160504517704,-0.0005006141636141,-0.0004379492063492,0.0005060839804639,-3.950810744810717e-05,-0.0004680861050061,-0.0005914231990231,-0.0005991507936507,-0.0006684523809523,-0.0005014505494505,-0.0005370755799755,-0.0005219582417582
-0.0005130148229548,-0.000506682051282,-0.0004440317460317,0.0005091142857142,-3.342908424908396e-05,-0.0004741651770451,-0.0005883746031746,-0.0005900269841269,-0.0006624031013431,-0.0004984295482295,-0.0005340582417582,-0.0005219582417582
-0.0005130148229548,-0.0005127499389499,-0.0004531555555555,0.0005121445909645,-3.0389572649572364e-05,-0.0004832837851037,-0.0005883746031746,-0.0005778619047619,-0.0006593784615384,-0.0005014505494505,-0.0005431102564102,-0.0005279929181929
-0.0005099791941391,-0.0005097159951159,-0.0004531555555555,0.0005091142857142,-2.735006105006077e-05,-0.0004802442490842,-0.0005883746031746,-0.0005809031746031,-0.0006684523809523,-0.0005074925518925,-0.0005461275946275,-0.0005340275946275
-0.0005099791941391,-0.0005036481074481,-0.0004440317460317,0.0005060839804639,-3.342908424908396e-05,-0.0004741651770451,-0.0005883746031746,-0.0005778619047619,-0.0006624031013431,-0.0005044715506715,-0.0005431102564102,-0.0005310102564102
-0.0005160504517704,-0.0004975802197802,-0.0004349079365079,0.0005060839804639,-3.950810744810717e-05,-0.0004650465689865,-0.000585326007326,-0.0005656968253968,-0.0006533291819291,-0.0004923875457875,-0.0005340582417582,-0.0005219582417582
-0.0005160504517704,-0.0004975802197802,-0.0004349079365079,0.0005060839804639,-3.950810744810717e-05,-0.0004650465689865,-0.000585326007326,-0.0005626555555555,-0.0006533291819291,-0.0004923875457875,-0.0005340582417582,-0.0005249755799755
-0.0005099791941391,-0.0004945462759462,-0.0004318666666666,0.0005000233699633,-3.950810744810717e-05,-0.000462007032967,-0.000585326007326,-0.0005626555555555,-0.0006563538217338,-0.0005014505494505,-0.0005431102564102,-0.0005310102564102
-0.0005069435653235,-0.0004975802197802,-0.0004379492063492,0.0005000233699633,-3.342908424908396e-05,-0.0004680861050061,-0.0005822774114774,-0.000556573015873,-0.0006533291819291,-0.0005044715506715,-0.0005461275946275,-0.0005370449328449
-0.0005099791941391,-0.0005036481074481,-0.000447073015873,0.0005060839804639,-3.0389572649572364e-05,-0.0004741651770451,-0.0005761802197802,-0.0005444079365079,-0.0006442552625152,-0.0004954085470085,-0.0005431102564102,-0.0005310102564102
-0.0005099791941391,-0.0005097159951159,-0.0004531555555555,0.0005091142857142,-2.735006105006077e-05,-0.0004802442490842,-0.000570083028083,-0.0005322428571428,-0.0006351813431013,-0.0004893665445665,-0.0005370755799755,-0.0005219582417582
-0.0005039079365079,-0.000506682051282,-0.0004561968253968,0.0005030536752136,-2.4310549450549165e-05,-0.0004802442490842,-0.000570083028083,-0.0005292015873015,-0.0006351813431013,-0.0004893665445665,-0.0005310409035409,-0.0005159235653235
-0.0005008723076923,-0.0005006141636141,-0.0004531555555555,0.0005000233699633,-2.4310549450549165e-05,-0.0004772047130647,-0.0005731316239316,-0.000523119047619,-0.0006382059829059,-0.0004923875457875,-0.0005340582417582,-0.0005219582417582
-0.0005008723076923,-0.0005036481074481,-0.0004561968253968,0.0005000233699633,-2.1271037851037568e-05,-0.0004802442490842,-0.0005731316239316,-0.0005139952380952,-0.0006382059829059,-0.0004923875457875,-0.0005400929181929,-0.0005310102564102
-0.0004978366788766,-0.000506682051282,-0.000459238095238,0.0005000233699633,-1.823152625152597e-05,-0.0004832837851037,-0.000570083028083,-0.0005048714285714,-0.000629132063492,-0.0004893665445665,-0.0005431102564102,-0.0005340275946275
-0.0004978366788766,-0.0005036481074481,-0.0004561968253968,0.0005000233699633,-2.1271037851037568e-05,-0.0004802442490842,-0.000570083028083,-0.0004957476190476,-0.0006200581440781,-0.0004863455433455,-0.0005370755799755,-0.0005279929181929
-0.0004978366788766,-0.0004975802197802,-0.0004531555555555,0.000496993064713,-2.1271037851037568e-05,-0.0004741651770451,-0.0005639858363858,-0.0004866238095238,-0.0006170335042735,-0.0004833245421245,-0.0005310409035409,-0.0005219582417582
-0.0004978366788766,-0.0005036481074481,-0.000459238095238,0.0005000233699633,-1.823152625152597e-05,-0.0004802442490842,-0.0005609372405372,-0.0004744587301587,-0.0006140088644688,-0.0004863455433455,-0.0005340582417582,-0.0005249755799755
-0.0004978366788766,-0.0005097159951159,-0.0004653206349206,0.0005030536752136,-1.5192014652014368e-05,-0.0004863233211233,-0.00055484004884,-0.0004622936507936,-0.0006140088644688,-0.0004833245421245,-0.0005370755799755,-0.0005279929181929
-0.0004856941636141,-0.0005097159951159,-0.0004774857142857,0.000496993064713,-3.03396825396797e-06,-0.0004924023931623,-0.00055484004884,-0.0004531698412698,-0.0006109842246642,-0.0004833245421245,-0.0005400929181929,-0.0005340275946275
-0.0004796229059829,-0.0004975802197802,-0.0004744444444444,0.0004879021489621,-3.03396825396797e-06,-0.0004863233211233,-0.0005609372405372,-0.000444046031746,-0.0006079595848595,-0.0004833245421245,-0.0005400929181929,-0.0005340275946275
-0.0004796229059829,-0.0004884783882783,-0.000459238095238,0.0004818415384615,-9.11299145299117e-06,-0.0004741651770451,-0.0005639858363858,-0.0004318809523809,-0.0006049349450549,-0.0004833245421245,-0.0005370755799755,-0.0005310102564102
-0.000494801050061,-0.0004854444444444,-0.0004440317460317,0.0004879021489621,-2.4310549450549165e-05,-0.0004650465689865,-0.0005578886446886,-0.0004166746031746,-0.0005988856654456,-0.0004772825396825,-0.0005340582417582,-0.0005310102564102
-0.000494801050061,-0.0004824105006105,-0.0004409904761904,0.0004879021489621,-2.735006105006077e-05,-0.000462007032967,-0.0005517914529914,-0.0003984269841269,-0.0005898117460317,-0.0004742615384615,-0.0005310409035409,-0.0005279929181929
-0.0004826585347985,-0.0004763426129426,-0.000447073015873,0.0004788112332112,-1.823152625152597e-05,-0.000462007032967,-0.00055484004884,-0.0003832206349206,-0.0005867871062271,-0.0004712405372405,-0.0005310409035409,-0.0005249755799755
-0.000470516019536,-0.0004642068376068,-0.0004501142857142,0.00046669001221,-9.11299145299117e-06,-0.0004559279609279,-0.0005517914529914,-0.0003710555555555,-0.0005777131868131,-0.0004651985347985,-0.0005250062271062,-0.0005189409035409
-0.0004674803907203,-0.0004672407814407,-0.0004531555555555,0.00046669001221,-6.07347985347957e-06,-0.0004589674969474,-0.0005487428571428,-0.0003467253968253,-0.0005625899877899,-0.0004561355311355,-0.0005129368742368,-0.0005098888888888
-0.000470516019536,-0.0004793765567765,-0.0004653206349206,0.0004727506227106,-3.03396825396797e-06,-0.0004711256410256,-0.0005365484737484,-0.0003223952380952,-0.000553516068376,-0.0004531145299145,-0.0005129368742368,-0.0005098888888888
-0.0004614091330891,-0.0004763426129426,-0.0004653206349206,0.00046669001221,5.543345543628675e-09,-0.0004711256410256,-0.0005304512820512,-0.0003041476190476,-0.0005504914285714,-0.0004591565323565,-0.0005189715506715,-0.0005159235653235
-0.0004492666178266,-0.0004581389499389,-0.000459238095238,0.0004515384859584,3.045054945055228e-06,-0.0004589674969474,-0.0005304512820512,-0.0002858999999999,-0.0005414175091575,-0.0004561355311355,-0.0005189715506715,-0.0005159235653235
-0.0004523022466422,-0.0004460031746031,-0.0004440317460317,0.0004485081807081,-3.03396825396797e-06,-0.0004437698168498,-0.0005304512820512,-0.0002615698412698,-0.0005323435897435,-0.0004470725274725,-0.0005099195360195,-0.0005038542124542
-0.0004583735042735,-0.0004338673992673,-0.0004318666666666,0.0004454778754578,-1.2152503052502767e-05,-0.0004316116727716,-0.0005274026862026,-0.0002402809523809,-0.0005232696703296,-0.0004380095238095,-0.0005038848595848,-0.0005008368742368
-0.0004492666178266,-0.0004277995115995,-0.0004288253968253,0.0004363869597069,-9.11299145299117e-06,-0.0004285721367521,-0.0005182568986568,-0.0002129095238095,-0.0005111711111111,-0.0004289465201465,-0.0004948328449328,-0.0004917848595848
-0.0004462309890109,-0.0004247655677655,-0.0004318666666666,0.0004333566544566,-6.07347985347957e-06,-0.0004285721367521,-0.0005091111111111,-0.0001885793650793,-0.0004990725518925,-0.0004168625152625,-0.0004887981684981,-0.0004827328449328
-0.0004401597313797,-0.0004156637362637,-0.0004318666666666,0.000427296043956,-3.03396825396797e-06,-0.000422493064713,-0.0005030139194139,-0.0001612079365079,-0.0004899986324786,-0.0004108205128205,-0.0004767288156288,-0.0004736808302808
-0.0004401597313797,-0.00039746007326,-0.000413619047619,0.0004182051282051,-1.2152503052502767e-05,-0.0004042558485958,-0.0004999653235653,-0.0001338365079365,-0.0004809247130647,-0.0004017575091575,-0.0004646594627594,-0.0004616114774114
-0.0004371241025641,-0.0003792564102564,-0.0003984126984126,0.0004060839072039,-1.823152625152597e-05,-0.0003890581684981,-0.0005030139194139,-0.0001186301587301,-0.0004748754334554,-0.0003987365079365,-0.0004616421245421,-0.0004616114774114
-0.0004310528449328,-0.0003640866910866,-0.0003892888888888,0.0003969929914529,-2.1271037851037568e-05,-0.00037690002442,-0.0005060625152625,-0.0001155888888888,-0.0004748754334554,-0.0003987365079365,-0.0004586247863247,-0.0004616114774114
-0.0004219459584859,-0.000342849084249,-0.0003740825396825,0.0003818414652014,-2.4310549450549165e-05,-0.0003586628083028,-0.0005030139194139,-0.0001034238095238,-0.0004688261538461,-0.0003926945054945,-0.0004525901098901,-0.0004495421245421
-0.000412839072039,-0.0003307133089133,-0.0003679999999999,0.0003697202442002,-2.1271037851037568e-05,-0.0003495442002442,-0.0005030139194139,-9.429999999999968e-05,-0.0004597522344322,-0.0003836315018315,-0.0004405207570207,-0.0004344554334554
-0.0004189103296703,-0.0003216114774114,-0.0003527936507936,0.0003697202442002,-3.342908424908396e-05,-0.000337386056166,-0.0005030139194139,-8.213492063492033e-05,-0.0004416043956043,-0.0003715474969474,-0.000425434065934,-0.0004072993894993
-0.000412839072039,-0.0003094757020757,-0.0003527936507936,0.0003606293284493,-3.0389572649572364e-05,-0.0003313069841269,-0.0005030139194139,-6.996984126984096e-05,-0.0004325304761904,-0.0003594634920634,-0.0004133647130647,-0.000386178021978
-0.0003976609279609,-0.0002943059829059,-0.0003527936507936,0.0003454778021978,-2.1271037851037568e-05,-0.0003221883760683,-0.0005121597069597,-7.605238095238064e-05,-0.0004385797557997,-0.0003564424908424,-0.0004012953601953,-0.000377126007326
-0.0003946252991452,-0.0002761023199023,-0.000334546031746,0.0003333565811965,-3.0389572649572364e-05,-0.0003039511599511,-0.0005213054945054,-9.125873015872984e-05,-0.0004385797557997,-0.0003564424908424,-0.0003952606837606,-0.0003710913308913
-0.0003976609279609,-0.0002670004884004,-0.0003223809523809,0.0003303262759462,-3.6468595848595565e-05,-0.0002948325518925,-0.000524354090354,-0.000106465079365,-0.0004385797557997,-0.0003504004884004,-0.0003862086691086,-0.0003650566544566
-0.0003976609279609,-0.0002578986568986,-0.0003132571428571,0.0003272959706959,-4.254761904761877e-05,-0.0002857139438339,-0.0005274026862026,-0.0001247126984126,-0.0004385797557997,-0.0003443584859584,-0.0003801739926739,-0.0003529873015873
-0.0004067678144078,-0.0002457628815628,-0.0002950095238095,0.0003242656654456,-5.470566544566516e-05,-0.0002705162637362,-0.0005304512820512,-0.0001520841269841,-0.0004416043956043,-0.0003413374847374,-0.0003711219780219,-0.0003379006105006
-0.0004006965567765,-0.0002396949938949,-0.0002950095238095,0.000318205054945,-5.166615384615356e-05,-0.0002674767277167,-0.0005456942612942,-0.0001916206349206,-0.0004567275946275,-0.0003473794871794,-0.0003711219780219,-0.0003379006105006
-0.0004067678144078,-0.0002457628815628,-0.0002919682539682,0.0003242656654456,-5.774517704517676e-05,-0.0002674767277167,-0.0005517914529914,-0.0002372396825396,-0.0004718507936507,-0.0003594634920634,-0.0003741393162393,-0.0003379006105006
-0.0004310528449328,-0.0002518307692307,-0.0002706793650793,0.0003394171916971,-7.902175824175796e-05,-0.0002613976556776,-0.0005517914529914,-0.0002858999999999,-0.0004839493528693,-0.0003594634920634,-0.0003681046398046,-0.0003288485958485
-0.0004401597313797,-0.0002487968253968,-0.0002645968253968,0.0003424474969474,-8.814029304029276e-05,-0.0002553185836385,-0.0005639858363858,-0.0003345603174603,-0.0004990725518925,-0.0003655054945054,-0.0003681046398046,-0.0003258312576312
-0.0004371241025641,-0.0002639665445665,-0.0002798031746031,0.0003485081074481,-7.902175824175796e-05,-0.0002705162637362,-0.0005822774114774,-0.0003801793650793,-0.000520245030525,-0.0003806105006105,-0.0003831913308913,-0.0003409179487179
-0.0004431953601953,-0.0002943059829059,-0.0003041333333333,0.0003666899389499,-6.990322344322315e-05,-0.000297872087912,-0.0005914231990231,-0.0004227571428571,-0.0005414175091575,-0.0003957155067155,-0.0004012953601953,-0.0003590219780219
-0.0004492666178266,-0.0003155435897435,-0.0003162984126984,0.0003818414652014,-6.686371184371155e-05,-0.0003161093040293,-0.0005944717948717,-0.0004622936507936,-0.0005595653479853,-0.0004077995115995,-0.0004133647130647,-0.000377126007326
-0.0004583735042735,-0.0003367811965811,-0.0003315047619047,0.0003969929914529,-6.382420024419996e-05,-0.0003343465201465,-0.0005944717948717,-0.0005018301587301,-0.0005807378266178,-0.0004259255189255,-0.0004314687423687,-0.0004012647130647
-0.0004765872771672,-0.0003671206349206,-0.0003436698412698,0.0004212354334554,-6.686371184371155e-05,-0.0003556232722832,-0.0005944717948717,-0.0005352841269841,-0.000595861025641,-0.0004380095238095,-0.0004465554334554,-0.000413334065934
-0.0004887297924297,-0.00039746007326,-0.0003649587301587,0.0004424475702075,-6.078468864468836e-05,-0.0003799395604395,-0.0005975203907203,-0.0005596142857142,-0.0006079595848595,-0.0004470725274725,-0.0004556074481074,-0.0004254034188034
-0.0004978366788766,-0.0004277995115995,-0.0003862476190476,0.0004606294017094,-5.470566544566516e-05,-0.0004072953846153,-0.0005975203907203,-0.0005900269841269,-0.0006261074236874,-0.0004621775335775,-0.0004706941391941,-0.0004435074481074
-0.0005069435653235,-0.000455105006105,-0.0003984126984126,0.0004788112332112,-5.470566544566516e-05,-0.0004255326007326,-0.0005975203907203,-0.0006234809523809,-0.0006472799023199,-0.0004803035409035,-0.0004918155067155,-0.0004646288156288
-0.0005130148229548,-0.0004763426129426,-0.000413619047619,0.0004939627594627,-4.862664224664196e-05,-0.0004437698168498,-0.0005944717948717,-0.0006417285714285,-0.0006654277411477,-0.0004954085470085,-0.0005129368742368,-0.0004857501831501
-0.000519086080586,-0.0005006141636141,-0.0004318666666666,0.0005091142857142,-4.254761904761877e-05,-0.0004650465689865,-0.0005914231990231,-0.0006569349206349,-0.000671477020757,-0.0005044715506715,-0.0005219888888888,-0.0004978195360195
-0.0005281929670329,-0.0005218517704517,-0.0004440317460317,0.0005242658119658,-4.254761904761877e-05,-0.0004832837851037,-0.0005944717948717,-0.0006690999999999,-0.0006866002197802,-0.0005165555555555,-0.0005310409035409,-0.0005038542124542
-0.0005281929670329,-0.0005309536019536,-0.0004561968253968,0.0005272961172161,-3.6468595848595565e-05,-0.0004924023931623,-0.0006036175824175,-0.000681265079365,-0.0007017234188034,-0.0005316605616605,-0.0005461275946275,-0.0005189409035409
-0.0005312285958485,-0.0005400554334554,-0.000459238095238,0.0005333567277167,-3.6468595848595565e-05,-0.0004984814652014,-0.0006036175824175,-0.0006934301587301,-0.0007168466178266,-0.0005467655677655,-0.0005612142857142,-0.0005340275946275
-0.0005403354822954,-0.0005491572649572,-0.0004622793650793,0.0005424476434676,-3.950810744810717e-05,-0.0005045605372405,-0.0005975203907203,-0.0007025539682539,-0.0007228958974358,-0.0005497865689865,-0.0005672489621489,-0.0005430796092796
-0.0005433711111111,-0.0005643269841269,-0.0004714031746031,0.0005515385592185,-3.6468595848595565e-05,-0.0005167186813186,-0.0005883746031746,-0.0007055952380952,-0.0007168466178266,-0.0005437445665445,-0.0005672489621489,-0.0005400622710622
-0.0005433711111111,-0.0005734288156288,-0.0004835682539682,0.0005575991697191,-3.0389572649572364e-05,-0.0005288768253968,-0.0005822774114774,-0.0006995126984126,-0.0007168466178266,-0.0005437445665445,-0.0005672489621489,-0.0005430796092796
-0.0005403354822954,-0.0005764627594627,-0.0004896507936507,0.0005575991697191,-2.4310549450549165e-05,-0.0005319163614163,-0.0005822774114774,-0.0007025539682539,-0.0007259205372405,-0.0005558285714285,-0.0005702663003663,-0.0005430796092796
-0.0005433711111111,-0.0005703948717948,-0.0004835682539682,0.0005545688644688,-3.0389572649572364e-05,-0.0005258372893772,-0.000585326007326,-0.0007116777777777,-0.0007319698168498,-0.0005648915750915,-0.0005732836385836,-0.0005460969474969
-0.0005494423687423,-0.0005734288156288,-0.0004805269841269,0.0005606294749694,-3.342908424908396e-05,-0.0005258372893772,-0.0005822774114774,-0.0007116777777777,-0.0007349944566544,-0.0005648915750915,-0.0005763009768009,-0.0005521316239316
-0.0005524779975579,-0.0005794967032967,-0.0004805269841269,0.0005636597802197,-3.6468595848595565e-05,-0.0005288768253968,-0.0005792288156288,-0.0007086365079365,-0.0007289451770451,-0.0005618705738705,-0.0005763009768009,-0.0005521316239316
-0.0005555136263736,-0.0005916324786324,-0.0004866095238095,0.0005727506959706,-3.342908424908396e-05,-0.0005379954334554,-0.0005731316239316,-0.0007055952380952,-0.0007289451770451,-0.0005618705738705,-0.0005763009768009,-0.0005491142857142
-0.0005585492551892,-0.0006037682539682,-0.000492692063492,0.0005788113064713,-3.342908424908396e-05,-0.000547114041514,-0.0005670344322344,-0.0006995126984126,-0.0007289451770451,-0.0005648915750915,-0.0005823356532356,-0.0005491142857142
-0.0005646205128205,-0.0006007343101343,-0.0004835682539682,0.0005818416117216,-3.950810744810717e-05,-0.0005410349694749,-0.0005670344322344,-0.0007055952380952,-0.000738019096459,-0.0005799965811965,-0.0005913876678876,-0.0005551489621489
-0.0005615848840048,-0.0005916324786324,-0.0004805269841269,0.000575781001221,-3.950810744810717e-05,-0.0005349558974358,-0.0005670344322344,-0.0007086365079365,-0.0007440683760683,-0.0005830175824175,-0.000594405006105,-0.0005581663003663
-0.0005555136263736,-0.0005946664224664,-0.0004896507936507,0.0005727506959706,-3.342908424908396e-05,-0.0005410349694749,-0.000570083028083,-0.0007055952380952,-0.0007410437362637,-0.0005799965811965,-0.0005913876678876,-0.0005581663003663
-0.0005464067399267,-0.0006007343101343,-0.0005018158730158,0.0005727506959706,-2.1271037851037568e-05,-0.0005501535775335,-0.0005670344322344,-0.0006995126984126,-0.0007349944566544,-0.0005679125763125,-0.0005883703296703,-0.0005581663003663
-0.0005433711111111,-0.0006007343101343,-0.0005078984126984,0.0005697203907203,-1.823152625152597e-05,-0.0005531931135531,-0.000570083028083,-0.0006964714285714,-0.000738019096459,-0.0005709335775335,-0.0005883703296703,-0.0005611836385836
-0.0005433711111111,-0.0005946664224664,-0.0005048571428571,0.00056669008547,-1.823152625152597e-05,-0.0005501535775335,-0.000570083028083,-0.0006964714285714,-0.000738019096459,-0.0005769755799755,-0.0005913876678876,-0.0005642009768009
-0.0005433711111111,-0.0006007343101343,-0.0005048571428571,0.0005697203907203,-1.823152625152597e-05,-0.0005531931135531,-0.0005639858363858,-0.0006934301587301,-0.0007349944566544,-0.0005739545787545,-0.000594405006105,-0.0005642009768009
-0.0005464067399267,-0.0006068021978021,-0.0005109396825396,0.000575781001221,-1.823152625152597e-05,-0.0005592721855921,-0.0005578886446886,-0.0006873476190476,-0.0007289451770451,-0.0005709335775335,-0.0005913876678876,-0.0005642009768009
-0.0005524779975579,-0.0006068021978021,-0.0005048571428571,0.0005788113064713,-2.4310549450549165e-05,-0.0005562326495726,-0.00055484004884,-0.000681265079365,-0.0007289451770451,-0.0005709335775335,-0.0005913876678876,-0.0005672183150183
-0.0005524779975579,-0.0005977003663003,-0.0005018158730158,0.0005727506959706,-2.4310549450549165e-05,-0.0005501535775335,-0.0005609372405372,-0.0006843063492063,-0.0007319698168498,-0.0005739545787545,-0.000594405006105,-0.0005702356532356
-0.0005524779975579,-0.0005885985347985,-0.0004896507936507,0.0005697203907203,-3.0389572649572364e-05,-0.0005379954334554,-0.000570083028083,-0.000681265079365,-0.0007289451770451,-0.0005709335775335,-0.0005913876678876,-0.0005642009768009
-0.0005585492551892,-0.0005916324786324,-0.0004805269841269,0.0005727506959706,-3.950810744810717e-05,-0.0005349558974358,-0.0005670344322344,-0.0006782238095238,-0.0007259205372405,-0.0005709335775335,-0.0005883703296703,-0.0005611836385836
-0.0005494423687423,-0.0005916324786324,-0.000492692063492,0.0005697203907203,-2.735006105006077e-05,-0.0005410349694749,-0.0005639858363858,-0.0006751825396825,-0.0007228958974358,-0.0005709335775335,-0.0005883703296703,-0.0005581663003663
-0.0005494423687423,-0.0005794967032967,-0.0004774857142857,0.0005636597802197,-3.6468595848595565e-05,-0.0005288768253968,-0.0005670344322344,-0.0006751825396825,-0.0007228958974358,-0.0005679125763125,-0.0005823356532356,-0.0005581663003663
-0.0005524779975579,-0.0005703948717948,-0.0004683619047619,0.0005606294749694,-4.254761904761877e-05,-0.0005197582173382,-0.0005670344322344,-0.0006751825396825,-0.0007228958974358,-0.0005679125763125,-0.0005823356532356,-0.0005581663003663
-0.0005464067399267,-0.0005734288156288,-0.0004774857142857,0.0005575991697191,-3.342908424908396e-05,-0.0005258372893772,-0.0005670344322344,-0.000681265079365,-0.0007259205372405,-0.0005739545787545,-0.0005913876678876,-0.0005642009768009
-0.0005494423687423,-0.0005794967032967,-0.0004835682539682,0.0005636597802197,-3.342908424908396e-05,-0.0005319163614163,-0.0005670344322344,-0.000681265079365,-0.0007228958974358,-0.0005739545787545,-0.0005913876678876,-0.0005642009768009
-0.0005524779975579,-0.0005764627594627,-0.0004805269841269,0.0005636597802197,-3.6468595848595565e-05,-0.0005288768253968,-0.0005670344322344,-0.0006721412698412,-0.0007138219780219,-0.0005588495726495,-0.0005793183150183,-0.0005521316239316
-0.0005494423687423,-0.0005794967032967,-0.0004835682539682,0.0005636597802197,-3.342908424908396e-05,-0.0005319163614163,-0.0005639858363858,-0.0006630174603174,-0.0007017234188034,-0.0005437445665445,-0.0005642316239316,-0.0005370449328449
-0.0005464067399267,-0.0005764627594627,-0.0004835682539682,0.0005606294749694,-3.0389572649572364e-05,-0.0005288768253968,-0.000570083028083,-0.0006660587301587,-0.0007017234188034,-0.0005437445665445,-0.0005642316239316,-0.0005370449328449
-0.0005403354822954,-0.000561293040293,-0.0004744444444444,0.0005485082539682,-3.342908424908396e-05,-0.0005167186813186,-0.0005792288156288,-0.0006751825396825,-0.0007138219780219,-0.0005558285714285,-0.0005702663003663,-0.0005460969474969
-0.0005251573382173,-0.0005461233211233,-0.0004744444444444,0.0005333567277167,-2.4310549450549165e-05,-0.0005106396092796,-0.000585326007326,-0.0006843063492063,-0.0007198712576312,-0.0005588495726495,-0.0005763009768009,-0.0005460969474969
-0.0005221217094017,-0.0005552251526251,-0.0004835682539682,0.000536387032967,-1.823152625152597e-05,-0.0005197582173382,-0.0005822774114774,-0.000681265079365,-0.0007168466178266,-0.0005558285714285,-0.0005732836385836,-0.0005491142857142
-0.0005251573382173,-0.0005643269841269,-0.0004896507936507,0.0005424476434676,-1.823152625152597e-05,-0.0005258372893772,-0.0005792288156288,-0.0006751825396825,-0.0007138219780219,-0.0005497865689865,-0.0005672489621489,-0.0005460969474969
-0.0005281929670329,-0.000561293040293,-0.0004805269841269,0.0005424476434676,-2.4310549450549165e-05,-0.0005197582173382,-0.0005822774114774,-0.0006751825396825,-0.0007107973382173,-0.0005437445665445,-0.0005581969474969,-0.0005370449328449
-0.0005281929670329,-0.000558259096459,-0.0004744444444444,0.0005424476434676,-2.735006105006077e-05,-0.0005167186813186,-0.000585326007326,-0.0006782238095238,-0.0007138219780219,-0.0005437445665445,-0.0005581969474969,-0.0005340275946275
-0.0005281929670329,-0.0005491572649572,-0.0004744444444444,0.000536387032967,-2.735006105006077e-05,-0.0005106396092796,-0.0005822774114774,-0.000681265079365,-0.0007138219780219,-0.0005407235653235,-0.0005581969474969,-0.0005310102564102
-0.0005342642246642,-0.0005400554334554,-0.0004622793650793,0.000536387032967,-3.6468595848595565e-05,-0.000501521001221,-0.0005822774114774,-0.000681265079365,-0.0007138219780219,-0.0005377025641025,-0.0005521622710622,-0.0005279929181929
-0.0005342642246642,-0.0005400554334554,-0.000459238095238,0.000536387032967,-3.6468595848595565e-05,-0.0004984814652014,-0.000585326007326,-0.000681265079365,-0.0007168466178266,-0.0005407235653235,-0.0005491449328449,-0.0005249755799755
-0.0005281929670329,-0.0005430893772893,-0.0004683619047619,0.0005333567277167,-3.0389572649572364e-05,-0.0005045605372405,-0.0005883746031746,-0.0006843063492063,-0.0007168466178266,-0.0005437445665445,-0.0005521622710622,-0.0005279929181929
-0.0005342642246642,-0.0005461233211233,-0.0004653206349206,0.0005394173382173,-3.342908424908396e-05,-0.0005045605372405,-0.0005883746031746,-0.0006873476190476,-0.0007168466178266,-0.0005437445665445,-0.0005521622710622,-0.0005279929181929
-0.0005342642246642,-0.0005461233211233,-0.0004653206349206,0.0005394173382173,-3.342908424908396e-05,-0.0005045605372405,-0.0005883746031746,-0.0006873476190476,-0.0007168466178266,-0.0005377025641025,-0.0005491449328449,-0.0005279929181929
-0.0005342642246642,-0.0005521912087912,-0.0004683619047619,0.0005424476434676,-3.342908424908396e-05,-0.0005106396092796,-0.0005883746031746,-0.0006843063492063,-0.0007168466178266,-0.0005346815628815,-0.0005461275946275,-0.0005279929181929
-0.0005372998534798,-0.0005521912087912,-0.0004653206349206,0.0005424476434676,-3.6468595848595565e-05,-0.00050760007326,-0.0005883746031746,-0.0006843063492063,-0.0007138219780219,-0.0005316605616605,-0.0005461275946275,-0.0005279929181929
-0.0005372998534798,-0.0005552251526251,-0.0004683619047619,0.0005454779487179,-3.342908424908396e-05,-0.0005106396092796,-0.0005883746031746,-0.0006903888888888,-0.0007198712576312,-0.0005377025641025,-0.0005521622710622,-0.0005310102564102
-0.0005372998534798,-0.000558259096459,-0.0004714031746031,0.0005454779487179,-3.342908424908396e-05,-0.0005136791452991,-0.000585326007326,-0.0006964714285714,-0.0007259205372405,-0.0005467655677655,-0.0005612142857142,-0.0005400622710622
-0.0005312285958485,-0.0005552251526251,-0.0004744444444444,0.0005424476434676,-2.735006105006077e-05,-0.0005136791452991,-0.000585326007326,-0.0007055952380952,-0.0007319698168498,-0.0005558285714285,-0.0005642316239316,-0.0005430796092796
-0.0005342642246642,-0.0005521912087912,-0.0004714031746031,0.0005424476434676,-3.0389572649572364e-05,-0.0005106396092796,-0.000585326007326,-0.0007055952380952,-0.0007319698168498,-0.0005528075702075,-0.0005612142857142,-0.0005400622710622
-0.0005403354822954,-0.000561293040293,-0.0004714031746031,0.0005485082539682,-3.342908424908396e-05,-0.0005167186813186,-0.0005883746031746,-0.0007086365079365,-0.0007319698168498,-0.0005497865689865,-0.0005612142857142,-0.0005400622710622
-0.0005433711111111,-0.0005673609279609,-0.0004774857142857,0.0005545688644688,-3.342908424908396e-05,-0.0005227977533577,-0.000585326007326,-0.0007086365079365,-0.0007319698168498,-0.0005467655677655,-0.0005581969474969,-0.0005370449328449
-0.0005464067399267,-0.0005643269841269,-0.0004714031746031,0.0005545688644688,-3.6468595848595565e-05,-0.0005167186813186,-0.0005822774114774,-0.0007025539682539,-0.0007289451770451,-0.0005407235653235,-0.0005521622710622,-0.0005310102564102
-0.0005464067399267,-0.000561293040293,-0.0004653206349206,0.0005515385592185,-3.950810744810717e-05,-0.0005136791452991,-0.0005822774114774,-0.0007025539682539,-0.0007289451770451,-0.0005437445665445,-0.0005551796092796,-0.0005310102564102
-0.0005433711111111,-0.000561293040293,-0.0004714031746031,0.0005515385592185,-3.6468595848595565e-05,-0.0005167186813186,-0.000585326007326,-0.0007055952380952,-0.0007319698168498,-0.0005467655677655,-0.0005612142857142,-0.0005400622710622
-0.0005372998534798,-0.000558259096459,-0.0004714031746031,0.0005454779487179,-3.342908424908396e-05,-0.0005136791452991,-0.0005944717948717,-0.0007116777777777,-0.000738019096459,-0.0005528075702075,-0.0005642316239316,-0.0005430796092796
-0.0005403354822954,-0.0005643269841269,-0.0004744444444444,0.0005515385592185,-3.342908424908396e-05,-0.0005197582173382,-0.0005914231990231,-0.000714719047619,-0.000738019096459,-0.0005528075702075,-0.0005642316239316,-0.0005460969474969
-0.0005464067399267,-0.0005764627594627,-0.0004805269841269,0.0005606294749694,-3.342908424908396e-05,-0.0005288768253968,-0.000585326007326,-0.0007116777777777,-0.0007349944566544,-0.0005528075702075,-0.0005672489621489,-0.0005430796092796
-0.0005433711111111,-0.0005794967032967,-0.0004835682539682,0.0005606294749694,-3.0389572649572364e-05,-0.0005319163614163,-0.0005822774114774,-0.0007177603174603,-0.000738019096459,-0.0005558285714285,-0.0005672489621489,-0.0005460969474969
-0.0005342642246642,-0.0005734288156288,-0.0004866095238095,0.0005515385592185,-2.4310549450549165e-05,-0.0005288768253968,-0.0005914231990231,-0.0007208015873015,-0.0007410437362637,-0.0005588495726495,-0.0005672489621489,-0.0005491142857142
-0.0005433711111111,-0.0005673609279609,-0.0004774857142857,0.0005545688644688,-3.342908424908396e-05,-0.0005227977533577,-0.0005944717948717,-0.0007177603174603,-0.0007410437362637,-0.0005558285714285,-0.0005672489621489,-0.0005460969474969
-0.0005464067399267,-0.0005643269841269,-0.0004714031746031,0.0005545688644688,-3.6468595848595565e-05,-0.0005167186813186,-0.0005914231990231,-0.000714719047619,-0.000738019096459,-0.0005528075702075,-0.0005642316239316,-0.0005400622710622
-0.0005555136263736,-0.0005673609279609,-0.0004653206349206,0.0005606294749694,-4.558713064713037e-05,-0.0005167186813186,-0.0005883746031746,-0.000714719047619,-0.0007349944566544,-0.0005497865689865,-0.0005612142857142,-0.0005370449328449
-0.0005615848840048,-0.0005764627594627,-0.0004683619047619,0.00056669008547,-4.558713064713037e-05,-0.0005227977533577,-0.000585326007326,-0.0007116777777777,-0.0007319698168498,-0.0005497865689865,-0.0005581969474969,-0.0005370449328449
-0.0005494423687423,-0.0005825306471306,-0.0004866095238095,0.0005636597802197,-3.0389572649572364e-05,-0.0005349558974358,-0.0005883746031746,-0.000714719047619,-0.0007349944566544,-0.0005497865689865,-0.0005642316239316,-0.0005400622710622
-0.0005372998534798,-0.0005734288156288,-0.0004896507936507,0.0005545688644688,-2.4310549450549165e-05,-0.0005319163614163,-0.0005944717948717,-0.0007177603174603,-0.0007410437362637,-0.0005588495726495,-0.0005702663003663,-0.0005460969474969
-0.0005433711111111,-0.0005794967032967,-0.0004866095238095,0.0005606294749694,-2.735006105006077e-05,-0.0005319163614163,-0.0005914231990231,-0.0007177603174603,-0.0007440683760683,-0.0005618705738705,-0.0005732836385836,-0.0005521316239316
-0.0005464067399267,-0.0005794967032967,-0.0004835682539682,0.0005606294749694,-3.0389572649572364e-05,-0.0005319163614163,-0.0005883746031746,-0.0007208015873015,-0.0007410437362637,-0.0005618705738705,-0.0005702663003663,-0.0005491142857142
-0.0005433711111111,-0.0005764627594627,-0.0004835682539682,0.0005575991697191,-3.0389572649572364e-05,-0.0005288768253968,-0.0005914231990231,-0.0007177603174603,-0.000738019096459,-0.0005588495726495,-0.0005672489621489,-0.0005460969474969
-0.0005433711111111,-0.0005734288156288,-0.0004805269841269,0.0005575991697191,-3.0389572649572364e-05,-0.0005258372893772,-0.0005914231990231,-0.0007177603174603,-0.0007349944566544,-0.0005528075702075,-0.0005642316239316,-0.0005370449328449
-0.0005372998534798,-0.0005703948717948,-0.0004866095238095,0.0005515385592185,-2.4310549450549165e-05,-0.0005288768253968,-0.0005944717948717,-0.0007177603174603,-0.0007410437362637,-0.0005558285714285,-0.0005672489621489,-0.0005400622710622
-0.0005372998534798,-0.0005764627594627,-0.000492692063492,0.0005545688644688,-2.1271037851037568e-05,-0.0005349558974358,-0.0005944717948717,-0.0007208015873015,-0.0007440683760683,-0.0005588495726495,-0.0005702663003663,-0.0005460969474969
-0.0005433711111111,-0.0005794967032967,-0.0004866095238095,0.0005606294749694,-2.735006105006077e-05,-0.0005319163614163,-0.0005914231990231,-0.0007238428571428,-0.000747093015873,-0.0005618705738705,-0.0005732836385836,-0.0005491142857142
-0.0005433711111111,-0.0005703948717948,-0.0004774857142857,0.0005545688644688,-3.342908424908396e-05,-0.0005227977533577,-0.000585326007326,-0.0007268841269841,-0.0007501176556776,-0.0005648915750915,-0.0005732836385836,-0.0005491142857142
-0.0005464067399267,-0.0005673609279609,-0.0004714031746031,0.0005545688644688,-3.6468595848595565e-05,-0.0005197582173382,-0.000585326007326,-0.0007268841269841,-0.0007440683760683,-0.0005618705738705,-0.0005672489621489,-0.0005430796092796
-0.0005494423687423,-0.0005673609279609,-0.0004683619047619,0.0005575991697191,-3.950810744810717e-05,-0.0005167186813186,-0.0005883746031746,-0.0007208015873015,-0.000738019096459,-0.0005558285714285,-0.0005672489621489,-0.0005460969474969
-0.0005433711111111,-0.0005734288156288,-0.0004805269841269,0.0005575991697191,-3.0389572649572364e-05,-0.0005258372893772,-0.0005914231990231,-0.0007208015873015,-0.000738019096459,-0.0005588495726495,-0.0005702663003663,-0.0005521316239316
-0.0005342642246642,-0.0005764627594627,-0.000492692063492,0.0005545688644688,-2.1271037851037568e-05,-0.0005349558974358,-0.0005944717948717,-0.0007299253968253,-0.0007440683760683,-0.0005648915750915,-0.0005793183150183,-0.0005551489621489
-0.0005403354822954,-0.0005764627594627,-0.0004835682539682,0.0005575991697191,-2.735006105006077e-05,-0.0005288768253968,-0.0005944717948717,-0.0007329666666666,-0.0007440683760683,-0.0005618705738705,-0.0005763009768009,-0.0005521316239316
-0.0005494423687423,-0.0005794967032967,-0.0004835682539682,0.0005636597802197,-3.342908424908396e-05,-0.0005319163614163,-0.000585326007326,-0.0007238428571428,-0.000738019096459,-0.0005588495726495,-0.0005702663003663,-0.0005460969474969
-0.0005433711111111,-0.0005794967032967,-0.0004896507936507,0.0005606294749694,-2.735006105006077e-05,-0.0005349558974358,-0.0005883746031746,-0.0007238428571428,-0.0007410437362637,-0.0005558285714285,-0.0005672489621489,-0.0005370449328449
-0.0005342642246642,-0.0005794967032967,-0.0004957333333333,0.0005545688644688,-1.823152625152597e-05,-0.0005379954334554,-0.0005944717948717,-0.0007268841269841,-0.0007440683760683,-0.0005618705738705,-0.0005702663003663,-0.0005430796092796
-0.0005372998534798,-0.0005794967032967,-0.0004957333333333,0.0005575991697191,-2.1271037851037568e-05,-0.0005379954334554,-0.0005944717948717,-0.0007268841269841,-0.000747093015873,-0.0005648915750915,-0.0005763009768009,-0.0005491142857142
-0.0005464067399267,-0.0005764627594627,-0.0004835682539682,0.0005606294749694,-3.0389572649572364e-05,-0.0005288768253968,-0.0005914231990231,-0.0007238428571428,-0.0007440683760683,-0.0005588495726495,-0.0005702663003663,-0.0005460969474969
-0.0005464067399267,-0.0005734288156288,-0.0004774857142857,0.0005575991697191,-3.342908424908396e-05,-0.0005258372893772,-0.0005914231990231,-0.0007208015873015,-0.000738019096459,-0.0005497865689865,-0.0005642316239316,-0.0005400622710622
-0.0005464067399267,-0.0005703948717948,-0.0004774857142857,0.0005575991697191,-3.342908424908396e-05,-0.0005227977533577,-0.0005944717948717,-0.000714719047619,-0.0007349944566544,-0.0005467655677655,-0.0005642316239316,-0.0005370449328449
-0.0005433711111111,-0.0005703948717948,-0.0004805269841269,0.0005545688644688,-3.0389572649572364e-05,-0.0005258372893772,-0.0005975203907203,-0.0007208015873015,-0.0007410437362637,-0.0005558285714285,-0.0005702663003663,-0.0005460969474969
-0.0005464067399267,-0.0005703948717948,-0.0004774857142857,0.0005575991697191,-3.342908424908396e-05,-0.0005227977533577,-0.0005944717948717,-0.0007299253968253,-0.000747093015873,-0.0005618705738705,-0.0005763009768009,-0.0005521316239316
-0.0005494423687423,-0.0005673609279609,-0.0004653206349206,0.0005575991697191,-4.254761904761877e-05,-0.0005167186813186,-0.0005914231990231,-0.0007299253968253,-0.000747093015873,-0.0005618705738705,-0.0005702663003663,-0.0005491142857142
-0.0005524779975579,-0.0005643269841269,-0.0004683619047619,0.0005575991697191,-4.254761904761877e-05,-0.0005167186813186,-0.0005944717948717,-0.0007268841269841,-0.0007440683760683,-0.0005588495726495,-0.0005702663003663,-0.0005460969474969
-0.0005464067399267,-0.0005703948717948,-0.0004805269841269,0.0005575991697191,-3.342908424908396e-05,-0.0005258372893772,-0.0005975203907203,-0.0007238428571428,-0.000747093015873,-0.0005618705738705,-0.0005732836385836,-0.0005491142857142
-0.0005372998534798,-0.0005673609279609,-0.0004805269841269,0.0005515385592185,-2.735006105006077e-05,-0.0005227977533577,-0.0006036175824175,-0.0007299253968253,-0.0007501176556776,-0.0005648915750915,-0.0005763009768009,-0.0005521316239316
-0.0005372998534798,-0.0005673609279609,-0.0004805269841269,0.0005515385592185,-2.735006105006077e-05,-0.0005227977533577,-0.0006036175824175,-0.0007299253968253,-0.0007440683760683,-0.0005618705738705,-0.0005732836385836,-0.0005491142857142
-0.0005372998534798,-0.0005673609279609,-0.0004805269841269,0.0005515385592185,-2.735006105006077e-05,-0.0005227977533577,-0.0005944717948717,-0.0007208015873015,-0.0007349944566544,-0.0005528075702075,-0.0005672489621489,-0.0005400622710622
-0.0005312285958485,-0.000558259096459,-0.0004774857142857,0.0005424476434676,-2.735006105006077e-05,-0.0005167186813186,-0.0005883746031746,-0.000714719047619,-0.0007289451770451,-0.0005467655677655,-0.0005612142857142,-0.0005310102564102
-0.0005342642246642,-0.0005521912087912,-0.0004683619047619,0.0005424476434676,-3.342908424908396e-05,-0.0005106396092796,-0.0005883746031746,-0.000714719047619,-0.0007319698168498,-0.0005467655677655,-0.0005581969474969,-0.0005310102564102
-0.0005312285958485,-0.0005430893772893,-0.0004622793650793,0.000536387032967,-3.342908424908396e-05,-0.000501521001221,-0.0005822774114774,-0.000714719047619,-0.0007319698168498,-0.0005497865689865,-0.0005642316239316,-0.0005340275946275
-0.0005281929670329,-0.0005339875457875,-0.0004561968253968,0.0005303264224664,-3.6468595848595565e-05,-0.0004954419291819,-0.0005761802197802,-0.0007086365079365,-0.0007228958974358,-0.0005437445665445,-0.0005612142857142,-0.0005340275946275
-0.000519086080586,-0.0005157838827838,-0.000447073015873,0.0005151748962148,-3.6468595848595565e-05,-0.0004802442490842,-0.0005670344322344,-0.0006934301587301,-0.0007017234188034,-0.0005256185592185,-0.0005461275946275,-0.0005219582417582
-0.0005069435653235,-0.0005036481074481,-0.0004531555555555,0.0005030536752136,-2.735006105006077e-05,-0.0004772047130647,-0.00055484004884,-0.0006721412698412,-0.0006805509401709,-0.0005105135531135,-0.0005340582417582,-0.0005098888888888
-0.0004917654212454,-0.0004945462759462,-0.0004531555555555,0.0004909324542124,-1.823152625152597e-05,-0.0004741651770451,-0.0005578886446886,-0.0006630174603174,-0.0006745016605616,-0.0005014505494505,-0.0005280235653235,-0.0005008368742368
-0.0004978366788766,-0.0004793765567765,-0.0004318666666666,0.0004879021489621,-3.342908424908396e-05,-0.0004559279609279,-0.0005639858363858,-0.0006569349206349,-0.0006684523809523,-0.0004954085470085,-0.0005159542124542,-0.0004917848595848
-0.000494801050061,-0.0004672407814407,-0.0004257841269841,0.0004788112332112,-3.342908424908396e-05,-0.0004468093528693,-0.0005731316239316,-0.0006538936507936,-0.0006684523809523,-0.0004923875457875,-0.0005159542124542,-0.0004917848595848
-0.0004887297924297,-0.0004611728937728,-0.0004288253968253,0.0004727506227106,-3.0389572649572364e-05,-0.0004437698168498,-0.0005944717948717,-0.0006690999999999,-0.000671477020757,-0.0005014505494505,-0.0005219888888888,-0.0004978195360195
-0.0004917654212454,-0.0004763426129426,-0.0004409904761904,0.0004818415384615,-2.4310549450549165e-05,-0.0004589674969474,-0.0006249577533577,-0.0006873476190476,-0.0006866002197802,-0.0005135345543345,-0.0005310409035409,-0.0005038542124542
-0.0004978366788766,-0.0004945462759462,-0.000447073015873,0.0004939627594627,-2.4310549450549165e-05,-0.0004711256410256,-0.0006280063492063,-0.0006964714285714,-0.0006926494993894,-0.0005105135531135,-0.0005280235653235,-0.0005038542124542
-0.0005008723076923,-0.000506682051282,-0.000459238095238,0.0005030536752136,-2.1271037851037568e-05,-0.0004832837851037,-0.0006219091575091,-0.0007025539682539,-0.0006986987789987,-0.0005135345543345,-0.0005310409035409,-0.0005068715506715
-0.0005069435653235,-0.0005279196581196,-0.0004744444444444,0.0005151748962148,-1.5192014652014368e-05,-0.000501521001221,-0.0006219091575091,-0.0007177603174603,-0.0007168466178266,-0.0005286395604395,-0.0005461275946275,-0.0005219582417582
-0.0005130148229548,-0.0005370214896214,-0.0004774857142857,0.0005242658119658,-1.823152625152597e-05,-0.00050760007326,-0.0006219091575091,-0.0007238428571428,-0.0007289451770451,-0.0005407235653235,-0.0005521622710622,-0.0005249755799755
-0.0005039079365079,-0.0005309536019536,-0.0004805269841269,0.0005151748962148,-1.2152503052502767e-05,-0.0005045605372405,-0.0006249577533577,-0.0007238428571428,-0.0007319698168498,-0.0005437445665445,-0.0005521622710622,-0.0005249755799755
-0.000494801050061,-0.0005279196581196,-0.0004835682539682,0.0005091142857142,-6.07347985347957e-06,-0.0005045605372405,-0.0006341035409035,-0.0007329666666666,-0.0007349944566544,-0.0005437445665445,-0.0005521622710622,-0.0005249755799755
-0.0004978366788766,-0.0005461233211233,-0.0005018158730158,0.0005212355067155,5.543345543628675e-09,-0.0005227977533577,-0.0006341035409035,-0.0007420904761904,-0.000747093015873,-0.0005558285714285,-0.0005672489621489,-0.0005400622710622
-0.0005099791941391,-0.0005673609279609,-0.0005109396825396,0.000536387032967,5.543345543628675e-09,-0.0005379954334554,-0.0006280063492063,-0.0007451317460317,-0.0007561669352869,-0.0005648915750915,-0.0005763009768009,-0.0005430796092796
-0.0005160504517704,-0.0005703948717948,-0.0005078984126984,0.0005424476434676,-3.03396825396797e-06,-0.0005379954334554,-0.0006280063492063,-0.0007390492063492,-0.0007531422954822,-0.0005618705738705,-0.0005732836385836,-0.0005370449328449
-0.000519086080586,-0.0005703948717948,-0.0005048571428571,0.0005424476434676,-6.07347985347957e-06,-0.0005379954334554,-0.0006310549450549,-0.0007420904761904,-0.0007531422954822,-0.0005588495726495,-0.0005702663003663,-0.0005400622710622
-0.0005312285958485,-0.0005673609279609,-0.000492692063492,0.0005485082539682,-1.823152625152597e-05,-0.0005288768253968,-0.0006280063492063,-0.0007420904761904,-0.0007531422954822,-0.0005618705738705,-0.0005732836385836,-0.0005400622710622
-0.0005433711111111,-0.0005794967032967,-0.0004866095238095,0.0005606294749694,-2.735006105006077e-05,-0.0005319163614163,-0.0006188605616605,-0.000748173015873,-0.0007561669352869,-0.0005679125763125,-0.0005763009768009,-0.0005491142857142
-0.0005524779975579,-0.0005946664224664,-0.0004896507936507,0.0005727506959706,-3.0389572649572364e-05,-0.0005410349694749,-0.0006097147741147,-0.0007542555555555,-0.0007591915750915,-0.0005739545787545,-0.0005853529914529,-0.0005521316239316
-0.0005555136263736,-0.00061287008547,-0.0005048571428571,0.0005818416117216,-2.4310549450549165e-05,-0.0005592721855921,-0.0006066661782661,-0.0007572968253968,-0.0007622162148962,-0.0005799965811965,-0.000594405006105,-0.0005581663003663
-0.0005524779975579,-0.000615904029304,-0.0005139809523809,0.0005818416117216,-1.823152625152597e-05,-0.0005653512576312,-0.0006127633699633,-0.0007572968253968,-0.0007652408547008,-0.0005799965811965,-0.0005913876678876,-0.0005581663003663
-0.0005433711111111,-0.0006098361416361,-0.0005170222222222,0.000575781001221,-1.2152503052502767e-05,-0.0005623117216117,-0.0006219091575091,-0.000760338095238,-0.0007712901343101,-0.0005860385836385,-0.0005913876678876,-0.0005581663003663
-0.0005494423687423,-0.0006007343101343,-0.0005018158730158,0.0005727506959706,-2.4310549450549165e-05,-0.0005501535775335,-0.0006219091575091,-0.0007633793650793,-0.0007712901343101,-0.0005860385836385,-0.0005913876678876,-0.0005551489621489
-0.0005585492551892,-0.0005885985347985,-0.0004805269841269,0.0005727506959706,-3.950810744810717e-05,-0.0005349558974358,-0.0006188605616605,-0.000760338095238,-0.0007652408547008,-0.0005799965811965,-0.0005823356532356,-0.0005491142857142
-0.0005585492551892,-0.0005885985347985,-0.0004774857142857,0.0005727506959706,-3.950810744810717e-05,-0.0005319163614163,-0.0006127633699633,-0.0007572968253968,-0.0007622162148962,-0.0005739545787545,-0.0005823356532356,-0.0005491142857142
-0.0005464067399267,-0.0005885985347985,-0.0004957333333333,0.00056669008547,-2.4310549450549165e-05,-0.0005410349694749,-0.0006127633699633,-0.0007542555555555,-0.0007622162148962,-0.0005739545787545,-0.0005823356532356,-0.0005491142857142
-0.0005433711111111,-0.0005885985347985,-0.0004987746031746,0.0005636597802197,-2.1271037851037568e-05,-0.0005440745054945,-0.0006127633699633,-0.0007542555555555,-0.0007561669352869,-0.0005679125763125,-0.0005793183150183,-0.0005460969474969
-0.0005464067399267,-0.0005916324786324,-0.0004987746031746,0.00056669008547,-2.4310549450549165e-05,-0.0005440745054945,-0.0006127633699633,-0.0007512142857142,-0.0007561669352869,-0.0005679125763125,-0.0005823356532356,-0.0005460969474969
-0.0005524779975579,-0.0005916324786324,-0.0004896507936507,0.0005697203907203,-3.0389572649572364e-05,-0.0005410349694749,-0.0006127633699633,-0.0007512142857142,-0.0007561669352869,-0.0005679125763125,-0.0005793183150183,-0.0005491142857142
-0.0005555136263736,-0.0005825306471306,-0.0004805269841269,0.00056669008547,-3.6468595848595565e-05,-0.0005319163614163,-0.0006127633699633,-0.0007572968253968,-0.0007531422954822,-0.0005648915750915,-0.0005763009768009,-0.0005460969474969
-0.0005433711111111,-0.0005734288156288,-0.0004774857142857,0.0005575991697191,-3.342908424908396e-05,-0.0005258372893772,-0.0006249577533577,-0.0007572968253968,-0.0007531422954822,-0.0005618705738705,-0.0005732836385836,-0.0005460969474969
-0.0005342642246642,-0.0005643269841269,-0.0004774857142857,0.0005485082539682,-2.735006105006077e-05,-0.0005197582173382,-0.0006249577533577,-0.0007360079365079,-0.0007319698168498,-0.0005528075702075,-0.0005763009768009,-0.0005521316239316
-0.0005433711111111,-0.0005430893772893,-0.000447073015873,0.0005424476434676,-4.862664224664196e-05,-0.0004954419291819,-0.0006097147741147,-0.0006903888888888,-0.0006684523809523,-0.0005286395604395,-0.0005732836385836,-0.0005611836385836
-0.0005464067399267,-0.0004672407814407,-0.0003710412698412,0.0005060839804639,-8.814029304029276e-05,-0.0004194535286935,-0.0006005689865689,-0.0006326047619047,-0.0005807378266178,-0.0004712405372405,-0.0005370755799755,-0.0005400622710622
-0.0004917654212454,-0.0003064417582417,-0.0002706793650793,0.0003969929914529,-0.0001094168742368,-0.0002887534798534,-0.0006341035409035,-0.0005109539682539,-0.0004416043956043,-0.0003383164835164,-0.000434486080586,-0.0004736808302808
-0.000364269010989,-7.586202686202667e-05,-0.0001642349206349,0.0002182049816849,-0.0001002983394383,-0.0001185394627594,-0.0007103184371184,-0.0003953857142857,-0.0002419781684981,-0.0001026783882783,-0.0002504284493284,-0.0003529873015873
-0.0002094519413919,0.0002730415140415,2.7365079365079456e-05,-3.028004884004881e-05,-0.0001185354090354,0.0001489397069597,-0.0008901855921855,-0.0005200777777777,-5.142586080586088e-05,0.0002084847374847,4.527069597069581e-05,-0.0001055655677655
-6.981301587301614e-05,0.0006674542124542,0.0002737079365079,-0.0002969469108669,-0.0001702071062271,0.0004711305250305,-0.0011706564102564,-0.0008576587301587,6.65350915750915e-05,0.0005498578754578,0.0004073512820512,0.0002203069597069
6.982590964590935e-05,0.0009769164835164,0.000444019047619,-0.0005211894993894,-0.0001854046642246,0.0007112538705738,-0.0015120991452991,-0.0012499825396825,2.419013431013423e-05,0.0008157059829059,0.0007271891330891,0.0005310927960927
0.0001517878876678,0.0011316476190476,0.0005170095238095,-0.0006393714041514,-0.0001823651526251,0.0008237167032967,-0.0017956185592185,-0.0015541095238095,-0.0001209925763125,0.00088821001221,0.0008901253968253,0.0007483411477411
0.0001001821978021,0.0008191514041514,0.0002585015873015,-0.000457553089133,-7.902175824175796e-05,0.0005380003174603,-0.0018261045177045,-0.0016909666666666,-0.0004627768742368,0.0005287108669108,0.000663825030525,0.000666873015873
-0.0001274899633699,0.0001668534798534,-0.0001672761904761,-1.815882783882781e-05,1.8242612942613222e-05,2.442002441966906e-09,-0.0016127028083028,-0.0018095761904761,-0.000973941001221,-0.0001177833943833,0.0001629468864468,0.0003530698412698
-0.0003794471550671,-0.0001729482295482,-0.0002524317460317,0.0002757807814407,-6.382420024419996e-05,-0.000212765079365,-0.001414544078144,-0.0019798873015873,-0.0013520209768009,-0.0005618705738705,-0.0001629256410256,0.0001418561660561
-0.000519086080586,-0.0003489169719169,-0.0002798031746031,0.0004333566544566,-0.0001185354090354,-0.0003130697680097,-0.001256017094017,-0.001909938095238,-0.0014427601709401,-0.0007461516483516,-0.0003500006105006,-2.108009768009828e-05
-0.0005797986568986,-0.0004763426129426,-0.0003497523809523,0.0005272961172161,-0.0001154958974358,-0.0004133744566544,-0.0011340732600732,-0.0016696777777777,-0.0013338731379731,-0.0007612566544566,-0.0004556074481074,-0.0001749643467643
