I,II,III,aVR,aVL,aVF,v1,v2,v3,v4,v5,v6
-0.0004340884737484,-0.0003822903540903,-0.0003984126984126,0.0004060839072039,-1.823152625152597e-05,-0.0003890581684981,-0.0004176532356532,-0.0002220333333333,-0.0003871608791208,-0.0003926945054945,-0.0004706941391941,-0.0005189409035409
-0.0004401597313797,-0.0003762224664224,-0.0003832063492063,0.0004060839072039,-2.735006105006077e-05,-0.0003799395604395,-0.000411556043956,-0.0001916206349206,-0.0003720376800976,-0.0003806105006105,-0.0004586247863247,-0.0005098888888888
-0.0004340884737484,-0.0003640866910866,-0.000380165079365,0.0003969929914529,-2.735006105006077e-05,-0.0003708209523809,-0.0004085074481074,-0.0001703317460317,-0.0003599391208791,-0.0003745684981684,-0.0004525901098901,-0.0005008368742368
-0.0004280172161172,-0.0003519509157509,-0.0003740825396825,0.000387902075702,-2.735006105006077e-05,-0.0003617023443223,-0.0004054588522588,-0.0001490428571428,-0.0003538898412698,-0.0003715474969474,-0.0004525901098901,-0.0004948021978021
-0.0004189103296703,-0.0003337472527472,-0.0003649587301587,0.0003757808547008,-2.735006105006077e-05,-0.0003495442002442,-0.0004054588522588,-0.0001307952380952,-0.0003508652014652,-0.0003655054945054,-0.000443538095238,-0.0004887675213675
-0.0004037321855921,-0.0003094757020757,-0.0003558349206349,0.0003545687179487,-2.4310549450549165e-05,-0.0003313069841269,-0.0004085074481074,-0.0001125476190476,-0.0003417912820512,-0.0003594634920634,-0.000434486080586,-0.0004827328449328
-0.0003946252991452,-0.000288238095238,-0.0003467111111111,0.0003394171916971,-2.4310549450549165e-05,-0.0003161093040293,-0.0004085074481074,-9.125873015872984e-05,-0.000326668083028,-0.0003443584859584,-0.0004193993894993,-0.0004676461538461
-0.0004006965567765,-0.0002791362637362,-0.000334546031746,0.0003394171916971,-3.342908424908396e-05,-0.0003069906959706,-0.0003993616605616,-6.388730158730128e-05,-0.0003085202442002,-0.0003262324786324,-0.0004043126984126,-0.0004495421245421
-0.0004006965567765,-0.0002761023199023,-0.0003284634920634,0.0003363868864468,-3.6468595848595565e-05,-0.0003009116239316,-0.0003993616605616,-4.868095238095208e-05,-0.0003024709645909,-0.0003171694749694,-0.0003922433455433,-0.0004344554334554
-0.000388554041514,-0.0002578986568986,-0.0003254222222222,0.0003212353601953,-3.0389572649572364e-05,-0.000291793015873,-0.0004024102564102,-4.259841269841239e-05,-0.0002964216849816,-0.0003050854700854,-0.0003801739926739,-0.0004193687423687
-0.0003794471550671,-0.0002336271062271,-0.0003071746031746,0.0003060838339438,-3.6468595848595565e-05,-0.0002705162637362,-0.0004054588522588,-4.259841269841239e-05,-0.000293397045177,-0.0002990434676434,-0.0003681046398046,-0.0004012647130647
-0.0003794471550671,-0.0002123894993894,-0.0002919682539682,0.0002939626129426,-4.254761904761877e-05,-0.000252279047619,-0.000411556043956,-4.563968253968224e-05,-0.0002903724053724,-0.0002960224664224,-0.0003560352869352,-0.0003891953601953
-0.0003824827838827,-0.0001972197802197,-0.0002737206349206,0.000287902002442,-5.470566544566516e-05,-0.0002340418315018,-0.000411556043956,-5.172222222222191e-05,-0.0002843231257631,-0.0002869594627594,-0.0003469832722832,-0.0003741086691086
-0.0003794471550671,-0.0001881179487179,-0.0002645968253968,0.0002818413919413,-5.774517704517676e-05,-0.0002249232234432,-0.0004176532356532,-6.692857142857113e-05,-0.0002873477655677,-0.0002839384615384,-0.0003379312576312,-0.0003650566544566
-0.0003794471550671,-0.0001759821733821,-0.0002493904761904,0.0002757807814407,-6.382420024419996e-05,-0.000212765079365,-0.0004237504273504,-9.125873015872984e-05,-0.0002873477655677,-0.0002809174603174,-0.0003318965811965,-0.0003560046398046
-0.0003794471550671,-0.0001577785103785,-0.0002341841269841,0.0002666898656898,-7.294273504273476e-05,-0.0001945278632478,-0.0004328962148962,-0.0001216714285714,-0.0002903724053724,-0.0002778964590964,-0.0003198272283272,-0.0003439352869352
-0.0003794471550671,-0.0001456427350427,-0.0002250603174603,0.0002606292551892,-7.598224664224636e-05,-0.0001854092551892,-0.0004481391941391,-0.0001581666666666,-0.0002964216849816,-0.0002748754578754,-0.0003137925518925,-0.0003348832722832
-0.0003794471550671,-0.0001486766788766,-0.0002281015873015,0.0002636595604395,-7.598224664224636e-05,-0.0001884487912087,-0.0004603335775335,-0.0002068269841269,-0.0003115448840048,-0.0002839384615384,-0.0003168098901098,-0.0003348832722832
-0.000388554041514,-0.0001577785103785,-0.0002281015873015,0.0002727504761904,-7.902175824175796e-05,-0.0001914883272283,-0.0004694793650793,-0.0002585285714285,-0.000326668083028,-0.0002899804639804,-0.0003198272283272,-0.0003379006105006
-0.0004006965567765,-0.0001699142857142,-0.0002281015873015,0.0002848716971916,-8.510078144078116e-05,-0.0001975673992673,-0.0004755765567765,-0.0003102301587301,-0.0003417912820512,-0.0002990434676434,-0.0003258619047619,-0.0003409179487179
-0.0004098034432234,-0.000185084004884,-0.0002311428571428,0.0002969929181929,-8.814029304029276e-05,-0.000206686007326,-0.0004816737484737,-0.0003619317460317,-0.0003599391208791,-0.0003081064713064,-0.0003318965811965,-0.0003469526251526
-0.0004189103296703,-0.0002063216117216,-0.0002433079365079,0.0003121444444444,-8.814029304029276e-05,-0.0002249232234432,-0.0004938681318681,-0.0004075507936507,-0.0003811115995115,-0.0003201904761904,-0.0003439659340659,-0.0003590219780219
-0.0004249815873015,-0.0002336271062271,-0.0002615555555555,0.0003272959706959,-8.206126984126955e-05,-0.0002461999755799,-0.0005060625152625,-0.0004531698412698,-0.000402284078144,-0.0003383164835164,-0.0003620699633699,-0.000377126007326
-0.0004340884737484,-0.0002639665445665,-0.0002798031746031,0.0003485081074481,-7.598224664224636e-05,-0.0002705162637362,-0.0005091111111111,-0.0004987888888888,-0.0004264811965811,-0.0003594634920634,-0.0003831913308913,-0.0004012647130647
-0.0004523022466422,-0.0002973399267399,-0.0002919682539682,0.0003727505494505,-7.902175824175796e-05,-0.0002948325518925,-0.0005060625152625,-0.0005383253968253,-0.0004476536752136,-0.0003775894993894,-0.0004043126984126,-0.000422386080586
-0.0004644447619047,-0.0003216114774114,-0.0003041333333333,0.0003909323809523,-7.902175824175796e-05,-0.0003130697680097,-0.0005060625152625,-0.0005717793650793,-0.0004688261538461,-0.0003926945054945,-0.0004224167277167,-0.0004435074481074
-0.0004674803907203,-0.0003489169719169,-0.0003284634920634,0.0004060839072039,-6.990322344322315e-05,-0.000337386056166,-0.0005091111111111,-0.000602192063492,-0.0004869739926739,-0.0004138415140415,-0.000443538095238,-0.0004616114774114
-0.0004856941636141,-0.0003853242979242,-0.0003527936507936,0.0004333566544566,-6.686371184371155e-05,-0.0003677814163614,-0.0005060625152625,-0.0006295634920634,-0.0005051218315018,-0.0004289465201465,-0.0004586247863247,-0.0004797155067155
-0.0005039079365079,-0.0004186976800976,-0.0003740825396825,0.0004606294017094,-6.382420024419996e-05,-0.0003951372405372,-0.0004999653235653,-0.0006538936507936,-0.0005262943101343,-0.0004440515262515,-0.0004767288156288,-0.0004978195360195
-0.0005039079365079,-0.0004460031746031,-0.0003953714285714,0.0004727506227106,-5.470566544566516e-05,-0.0004194535286935,-0.0004999653235653,-0.0006751825396825,-0.0005474667887667,-0.0004621775335775,-0.0004918155067155,-0.0005129062271062
-0.0005008723076923,-0.0004642068376068,-0.0004166603174603,0.0004818415384615,-4.254761904761877e-05,-0.0004407302808302,-0.0005030139194139,-0.0006934301587301,-0.0005625899877899,-0.0004742615384615,-0.0005038848595848,-0.0005249755799755
-0.0005039079365079,-0.0004702747252747,-0.0004197015873015,0.0004848718437118,-4.254761904761877e-05,-0.0004437698168498,-0.0005091111111111,-0.0007055952380952,-0.0005686392673992,-0.0004803035409035,-0.0005069021978021,-0.0005310102564102
-0.0005130148229548,-0.0004824105006105,-0.0004227428571428,0.000496993064713,-4.558713064713037e-05,-0.0004528884249084,-0.0005060625152625,-0.0007116777777777,-0.0005746885470085,-0.0004833245421245,-0.0005129368742368,-0.0005370449328449
-0.0005099791941391,-0.0005006141636141,-0.0004440317460317,0.0005030536752136,-3.342908424908396e-05,-0.0004711256410256,-0.0005060625152625,-0.0007238428571428,-0.0005867871062271,-0.0004984295482295,-0.0005280235653235,-0.0005491142857142
-0.0005130148229548,-0.0005127499389499,-0.000447073015873,0.0005121445909645,-3.342908424908396e-05,-0.0004802442490842,-0.0005030139194139,-0.0007329666666666,-0.000595861025641,-0.0005074925518925,-0.0005370755799755,-0.0005611836385836
-0.0005372998534798,-0.0005127499389499,-0.0004257841269841,0.0005242658119658,-5.470566544566516e-05,-0.0004680861050061,-0.0004969167277167,-0.0007299253968253,-0.0005898117460317,-0.0005044715506715,-0.0005310409035409,-0.0005551489621489
-0.0005403354822954,-0.0005157838827838,-0.0004227428571428,0.0005272961172161,-5.774517704517676e-05,-0.0004680861050061,-0.0004969167277167,-0.0007360079365079,-0.0005898117460317,-0.0005044715506715,-0.0005310409035409,-0.0005551489621489
-0.0005281929670329,-0.0005218517704517,-0.0004440317460317,0.0005242658119658,-4.254761904761877e-05,-0.0004832837851037,-0.0005030139194139,-0.0007420904761904,-0.0006019103052503,-0.0005135345543345,-0.0005431102564102,-0.0005672183150183
-0.0005221217094017,-0.0005279196581196,-0.0004561968253968,0.0005242658119658,-3.342908424908396e-05,-0.0004924023931623,-0.0005030139194139,-0.000748173015873,-0.0006079595848595,-0.0005195765567765,-0.0005521622710622,-0.0005732529914529
-0.0005251573382173,-0.0005279196581196,-0.0004561968253968,0.0005242658119658,-3.342908424908396e-05,-0.0004924023931623,-0.0004999653235653,-0.0007451317460317,-0.0006079595848595,-0.0005195765567765,-0.0005491449328449,-0.0005732529914529
-0.0005372998534798,-0.0005309536019536,-0.0004501142857142,0.0005333567277167,-4.254761904761877e-05,-0.0004893628571428,-0.0004969167277167,-0.0007390492063492,-0.0006019103052503,-0.0005165555555555,-0.0005461275946275,-0.0005702356532356
-0.0005312285958485,-0.0005370214896214,-0.0004622793650793,0.0005333567277167,-3.342908424908396e-05,-0.0004984814652014,-0.0004999653235653,-0.0007420904761904,-0.0006049349450549,-0.0005195765567765,-0.0005491449328449,-0.0005702356532356
-0.0005281929670329,-0.0005400554334554,-0.0004622793650793,0.0005333567277167,-3.342908424908396e-05,-0.000501521001221,-0.0005030139194139,-0.0007420904761904,-0.0006170335042735,-0.0005225975579975,-0.0005521622710622,-0.0005732529914529
-0.0005281929670329,-0.0005400554334554,-0.0004622793650793,0.0005333567277167,-3.342908424908396e-05,-0.000501521001221,-0.0005030139194139,-0.0007420904761904,-0.0006170335042735,-0.0005256185592185,-0.0005551796092796,-0.0005762703296703
-0.0005372998534798,-0.0005400554334554,-0.0004561968253968,0.000536387032967,-3.950810744810717e-05,-0.0004984814652014,-0.0005030139194139,-0.0007390492063492,-0.0006140088644688,-0.0005256185592185,-0.0005551796092796,-0.0005762703296703
-0.0005464067399267,-0.0005400554334554,-0.0004440317460317,0.0005424476434676,-5.166615384615356e-05,-0.0004924023931623,-0.0004938681318681,-0.0007329666666666,-0.0006079595848595,-0.0005225975579975,-0.0005521622710622,-0.0005732529914529
-0.0005342642246642,-0.0005339875457875,-0.0004501142857142,0.0005333567277167,-4.254761904761877e-05,-0.0004924023931623,-0.0004999653235653,-0.0007329666666666,-0.0006079595848595,-0.0005225975579975,-0.0005521622710622,-0.0005732529914529
-0.0005221217094017,-0.0005339875457875,-0.0004653206349206,0.0005272961172161,-2.735006105006077e-05,-0.0004984814652014,-0.0005060625152625,-0.0007360079365079,-0.0006109842246642,-0.0005286395604395,-0.0005581969474969,-0.000582305006105
-0.0005160504517704,-0.0005400554334554,-0.0004744444444444,0.0005272961172161,-2.1271037851037568e-05,-0.00050760007326,-0.0005060625152625,-0.0007360079365079,-0.0006140088644688,-0.0005377025641025,-0.0005672489621489,-0.0005943743589743
-0.0005312285958485,-0.0005400554334554,-0.000459238095238,0.0005333567277167,-3.6468595848595565e-05,-0.0004984814652014,-0.0004969167277167,-0.0007299253968253,-0.0006079595848595,-0.0005316605616605,-0.0005581969474969,-0.0005853223443223
-0.0005433711111111,-0.0005339875457875,-0.0004409904761904,0.000536387032967,-5.166615384615356e-05,-0.0004863233211233,-0.0004877709401709,-0.0007177603174603,-0.0005988856654456,-0.0005225975579975,-0.0005521622710622,-0.0005732529914529
-0.0005372998534798,-0.0005339875457875,-0.000447073015873,0.0005333567277167,-4.558713064713037e-05,-0.0004893628571428,-0.0004908195360195,-0.000714719047619,-0.0005988856654456,-0.0005225975579975,-0.0005551796092796,-0.0005732529914529
-0.0005372998534798,-0.0005400554334554,-0.0004531555555555,0.000536387032967,-4.254761904761877e-05,-0.0004954419291819,-0.0004908195360195,-0.0007116777777777,-0.0005988856654456,-0.0005225975579975,-0.0005581969474969,-0.0005792876678876
-0.0005403354822954,-0.0005430893772893,-0.0004531555555555,0.0005394173382173,-4.254761904761877e-05,-0.0004984814652014,-0.0004877709401709,-0.0007116777777777,-0.0005988856654456,-0.0005256185592185,-0.0005612142857142,-0.000582305006105
-0.0005403354822954,-0.0005400554334554,-0.0004561968253968,0.0005394173382173,-4.254761904761877e-05,-0.0004984814652014,-0.0004847223443223,-0.000714719047619,-0.0005988856654456,-0.0005256185592185,-0.0005612142857142,-0.0005853223443223
-0.0005494423687423,-0.0005339875457875,-0.0004409904761904,0.0005394173382173,-5.470566544566516e-05,-0.0004863233211233,-0.0004877709401709,-0.0007116777777777,-0.0005928363858363,-0.0005225975579975,-0.0005581969474969,-0.0005792876678876
-0.0005433711111111,-0.0005309536019536,-0.0004379492063492,0.000536387032967,-5.166615384615356e-05,-0.0004832837851037,-0.0004908195360195,-0.0007055952380952,-0.0005898117460317,-0.0005195765567765,-0.0005551796092796,-0.000582305006105
-0.0005221217094017,-0.0005279196581196,-0.0004561968253968,0.0005242658119658,-3.342908424908396e-05,-0.0004924023931623,-0.0004969167277167,-0.0007086365079365,-0.0005928363858363,-0.0005256185592185,-0.0005612142857142,-0.0005883396825396
-0.0005221217094017,-0.0005279196581196,-0.000459238095238,0.0005242658119658,-3.0389572649572364e-05,-0.0004924023931623,-0.0004969167277167,-0.0007116777777777,-0.0005928363858363,-0.0005256185592185,-0.0005642316239316,-0.000591357020757
-0.0005342642246642,-0.0005279196581196,-0.000447073015873,0.0005303264224664,-4.254761904761877e-05,-0.0004863233211233,-0.0004908195360195,-0.0007086365079365,-0.0005867871062271,-0.0005225975579975,-0.0005612142857142,-0.0005883396825396
-0.0005251573382173,-0.0005218517704517,-0.0004501142857142,0.0005212355067155,-3.6468595848595565e-05,-0.0004863233211233,-0.0004908195360195,-0.0007025539682539,-0.0005807378266178,-0.0005165555555555,-0.0005581969474969,-0.0005883396825396
-0.0005281929670329,-0.0005188178266178,-0.0004440317460317,0.0005212355067155,-4.254761904761877e-05,-0.0004802442490842,-0.0004908195360195,-0.0006995126984126,-0.0005777131868131,-0.0005105135531135,-0.0005491449328449,-0.0005792876678876
-0.0005251573382173,-0.0005188178266178,-0.000447073015873,0.0005212355067155,-3.950810744810717e-05,-0.0004832837851037,-0.0004938681318681,-0.0006964714285714,-0.0005777131868131,-0.0005074925518925,-0.0005461275946275,-0.0005762703296703
-0.000519086080586,-0.0005218517704517,-0.0004531555555555,0.0005182052014652,-3.342908424908396e-05,-0.0004863233211233,-0.0004969167277167,-0.0006995126984126,-0.0005777131868131,-0.0005074925518925,-0.0005491449328449,-0.0005762703296703
-0.0005251573382173,-0.0005157838827838,-0.000447073015873,0.0005182052014652,-3.950810744810717e-05,-0.0004802442490842,-0.0004938681318681,-0.0006995126984126,-0.0005746885470085,-0.0005044715506715,-0.0005461275946275,-0.0005732529914529
-0.0005312285958485,-0.0005127499389499,-0.0004318666666666,0.0005212355067155,-4.862664224664196e-05,-0.0004711256410256,-0.0004969167277167,-0.0006995126984126,-0.0005686392673992,-0.0004984295482295,-0.0005370755799755,-0.0005672183150183
-0.0005281929670329,-0.0005097159951159,-0.0004288253968253,0.0005182052014652,-4.862664224664196e-05,-0.0004680861050061,-0.0005030139194139,-0.0006995126984126,-0.0005716639072039,-0.0004984295482295,-0.0005340582417582,-0.0005642009768009
-0.0005130148229548,-0.000506682051282,-0.000447073015873,0.0005091142857142,-3.342908424908396e-05,-0.0004772047130647,-0.0005121597069597,-0.0007025539682539,-0.0005807378266178,-0.0005014505494505,-0.0005400929181929,-0.0005672183150183
-0.0005069435653235,-0.000506682051282,-0.0004531555555555,0.0005060839804639,-2.735006105006077e-05,-0.0004802442490842,-0.0005152083028083,-0.0006995126984126,-0.0005777131868131,-0.0005014505494505,-0.0005431102564102,-0.0005732529914529
-0.0005099791941391,-0.0005006141636141,-0.0004440317460317,0.0005030536752136,-3.342908424908396e-05,-0.0004711256410256,-0.0005121597069597,-0.0006995126984126,-0.0005746885470085,-0.0004954085470085,-0.0005370755799755,-0.0005672183150183
-0.000519086080586,-0.0004945462759462,-0.0004288253968253,0.0005060839804639,-4.558713064713037e-05,-0.000462007032967,-0.0005121597069597,-0.0006995126984126,-0.0005716639072039,-0.0004893665445665,-0.0005280235653235,-0.0005551489621489
-0.0005160504517704,-0.0004945462759462,-0.0004349079365079,0.0005030536752136,-3.950810744810717e-05,-0.0004650465689865,-0.0005121597069597,-0.0007025539682539,-0.0005746885470085,-0.0004893665445665,-0.0005280235653235,-0.0005551489621489
-0.0005130148229548,-0.0005006141636141,-0.0004440317460317,0.0005060839804639,-3.342908424908396e-05,-0.0004711256410256,-0.0005152083028083,-0.0007025539682539,-0.0005777131868131,-0.0004923875457875,-0.0005280235653235,-0.0005581663003663
-0.0005281929670329,-0.0005036481074481,-0.0004288253968253,0.0005151748962148,-4.862664224664196e-05,-0.0004650465689865,-0.0005091111111111,-0.0007025539682539,-0.0005777131868131,-0.0004893665445665,-0.0005250062271062,-0.0005521316239316
-0.0005312285958485,-0.0005036481074481,-0.0004288253968253,0.0005151748962148,-5.166615384615356e-05,-0.0004650465689865,-0.0005060625152625,-0.0007086365079365,-0.0005807378266178,-0.0004863455433455,-0.0005250062271062,-0.0005521316239316
-0.0005160504517704,-0.0004975802197802,-0.0004379492063492,0.0005060839804639,-3.950810744810717e-05,-0.0004680861050061,-0.0005121597069597,-0.0007116777777777,-0.0005837624664224,-0.0004893665445665,-0.0005250062271062,-0.0005521316239316
-0.0005130148229548,-0.0004975802197802,-0.0004409904761904,0.0005030536752136,-3.6468595848595565e-05,-0.0004680861050061,-0.0005121597069597,-0.000714719047619,-0.0005867871062271,-0.0004923875457875,-0.0005280235653235,-0.0005521316239316
-0.0005099791941391,-0.0005036481074481,-0.0004501142857142,0.0005060839804639,-3.0389572649572364e-05,-0.0004772047130647,-0.0005152083028083,-0.0007177603174603,-0.0005898117460317,-0.0004954085470085,-0.0005310409035409,-0.0005581663003663
-0.0005069435653235,-0.0005036481074481,-0.0004501142857142,0.0005030536752136,-2.735006105006077e-05,-0.0004772047130647,-0.0005121597069597,-0.0007208015873015,-0.0005898117460317,-0.0004984295482295,-0.0005310409035409,-0.0005611836385836
-0.0005099791941391,-0.0005097159951159,-0.0004501142857142,0.0005091142857142,-3.0389572649572364e-05,-0.0004802442490842,-0.0005091111111111,-0.0007208015873015,-0.0005928363858363,-0.0004984295482295,-0.0005340582417582,-0.0005611836385836
-0.0005130148229548,-0.0005097159951159,-0.0004501142857142,0.0005091142857142,-3.0389572649572364e-05,-0.0004802442490842,-0.0005091111111111,-0.0007238428571428,-0.000595861025641,-0.0005014505494505,-0.0005340582417582,-0.0005581663003663
-0.0005099791941391,-0.0005127499389499,-0.0004531555555555,0.0005091142857142,-2.735006105006077e-05,-0.0004832837851037,-0.0005121597069597,-0.0007268841269841,-0.0005988856654456,-0.0005014505494505,-0.0005340582417582,-0.0005611836385836
-0.0005281929670329,-0.0005127499389499,-0.0004379492063492,0.0005182052014652,-4.558713064713037e-05,-0.0004741651770451,-0.0005060625152625,-0.0007268841269841,-0.000595861025641,-0.0004984295482295,-0.0005280235653235,-0.0005551489621489
-0.0005524779975579,-0.0005157838827838,-0.0004166603174603,0.0005333567277167,-6.686371184371155e-05,-0.0004650465689865,-0.0004969167277167,-0.0007238428571428,-0.0005928363858363,-0.0004923875457875,-0.0005250062271062,-0.0005491142857142
-0.0005403354822954,-0.0005157838827838,-0.0004288253968253,0.0005272961172161,-5.470566544566516e-05,-0.0004711256410256,-0.0005030139194139,-0.0007299253968253,-0.0005988856654456,-0.0005014505494505,-0.0005310409035409,-0.0005551489621489
-0.0005099791941391,-0.0005218517704517,-0.0004622793650793,0.0005151748962148,-2.4310549450549165e-05,-0.0004924023931623,-0.0005121597069597,-0.0007390492063492,-0.0006079595848595,-0.0005135345543345,-0.0005431102564102,-0.0005672183150183
-0.000494801050061,-0.0005218517704517,-0.0004744444444444,0.0005060839804639,-9.11299145299117e-06,-0.0004984814652014,-0.0005182568986568,-0.0007451317460317,-0.0006109842246642,-0.0005165555555555,-0.0005461275946275,-0.0005672183150183
-0.0005099791941391,-0.0005157838827838,-0.0004531555555555,0.0005121445909645,-2.735006105006077e-05,-0.0004832837851037,-0.0005182568986568,-0.0007420904761904,-0.0006049349450549,-0.0005074925518925,-0.0005370755799755,-0.0005581663003663
-0.0005312285958485,-0.0005127499389499,-0.0004349079365079,0.0005212355067155,-4.862664224664196e-05,-0.0004741651770451,-0.0005121597069597,-0.0007329666666666,-0.0005988856654456,-0.0005014505494505,-0.0005310409035409,-0.0005521316239316
-0.0005281929670329,-0.0005127499389499,-0.0004349079365079,0.0005182052014652,-4.558713064713037e-05,-0.0004741651770451,-0.0005121597069597,-0.0007329666666666,-0.0005988856654456,-0.0005014505494505,-0.0005310409035409,-0.0005521316239316
-0.0005160504517704,-0.0005157838827838,-0.0004531555555555,0.0005151748962148,-3.0389572649572364e-05,-0.0004832837851037,-0.0005182568986568,-0.0007390492063492,-0.0006049349450549,-0.0005105135531135,-0.0005370755799755,-0.0005611836385836
-0.0005130148229548,-0.0005218517704517,-0.0004622793650793,0.0005151748962148,-2.4310549450549165e-05,-0.0004924023931623,-0.0005182568986568,-0.0007420904761904,-0.0006109842246642,-0.0005105135531135,-0.0005400929181929,-0.0005642009768009
-0.000519086080586,-0.0005248857142857,-0.000459238095238,0.0005212355067155,-3.0389572649572364e-05,-0.0004924023931623,-0.0005182568986568,-0.0007420904761904,-0.0006109842246642,-0.0005105135531135,-0.0005400929181929,-0.0005642009768009
-0.0005281929670329,-0.0005188178266178,-0.0004440317460317,0.0005212355067155,-4.254761904761877e-05,-0.0004802442490842,-0.0005152083028083,-0.0007420904761904,-0.0006079595848595,-0.0005074925518925,-0.0005340582417582,-0.0005611836385836
-0.0005221217094017,-0.0005127499389499,-0.0004440317460317,0.0005151748962148,-3.950810744810717e-05,-0.0004772047130647,-0.0005152083028083,-0.0007451317460317,-0.0006079595848595,-0.0005074925518925,-0.0005340582417582,-0.0005581663003663
-0.0005160504517704,-0.0005248857142857,-0.0004561968253968,0.0005182052014652,-3.0389572649572364e-05,-0.0004893628571428,-0.0005182568986568,-0.000748173015873,-0.0006140088644688,-0.0005105135531135,-0.0005400929181929,-0.0005642009768009
-0.000519086080586,-0.0005248857142857,-0.0004561968253968,0.0005212355067155,-3.0389572649572364e-05,-0.0004893628571428,-0.000524354090354,-0.000748173015873,-0.0006140088644688,-0.0005074925518925,-0.0005370755799755,-0.0005642009768009
-0.0005251573382173,-0.0005218517704517,-0.000447073015873,0.0005212355067155,-3.950810744810717e-05,-0.0004832837851037,-0.0005213054945054,-0.0007420904761904,-0.0006109842246642,-0.0005044715506715,-0.0005310409035409,-0.0005551489621489
-0.0005281929670329,-0.0005248857142857,-0.000447073015873,0.0005242658119658,-3.950810744810717e-05,-0.0004863233211233,-0.0005182568986568,-0.0007420904761904,-0.0006109842246642,-0.0005044715506715,-0.0005340582417582,-0.0005581663003663
-0.0005342642246642,-0.0005309536019536,-0.0004501142857142,0.0005303264224664,-4.254761904761877e-05,-0.0004893628571428,-0.0005152083028083,-0.0007451317460317,-0.0006140088644688,-0.0005074925518925,-0.0005400929181929,-0.0005611836385836
-0.0005312285958485,-0.0005309536019536,-0.0004531555555555,0.0005303264224664,-3.950810744810717e-05,-0.0004924023931623,-0.0005213054945054,-0.0007512142857142,-0.0006140088644688,-0.0005105135531135,-0.0005431102564102,-0.0005672183150183
-0.0005251573382173,-0.0005279196581196,-0.0004531555555555,0.0005242658119658,-3.6468595848595565e-05,-0.0004893628571428,-0.000524354090354,-0.0007512142857142,-0.0006140088644688,-0.0005105135531135,-0.0005400929181929,-0.0005642009768009
-0.0005221217094017,-0.0005279196581196,-0.0004561968253968,0.0005242658119658,-3.342908424908396e-05,-0.0004924023931623,-0.000524354090354,-0.000748173015873,-0.0006140088644688,-0.0005105135531135,-0.0005370755799755,-0.0005642009768009
-0.0005251573382173,-0.0005309536019536,-0.0004561968253968,0.0005272961172161,-3.342908424908396e-05,-0.0004924023931623,-0.0005213054945054,-0.000748173015873,-0.0006140088644688,-0.0005105135531135,-0.0005400929181929,-0.0005642009768009
-0.0005312285958485,-0.0005339875457875,-0.0004561968253968,0.0005303264224664,-3.6468595848595565e-05,-0.0004954419291819,-0.0005213054945054,-0.000748173015873,-0.0006140088644688,-0.0005135345543345,-0.0005431102564102,-0.0005642009768009
-0.0005433711111111,-0.0005279196581196,-0.0004379492063492,0.0005333567277167,-5.166615384615356e-05,-0.0004832837851037,-0.0005182568986568,-0.0007451317460317,-0.0006109842246642,-0.0005074925518925,-0.0005370755799755,-0.0005551489621489
-0.0005433711111111,-0.0005248857142857,-0.0004318666666666,0.0005333567277167,-5.470566544566516e-05,-0.0004772047130647,-0.000524354090354,-0.0007420904761904,-0.0006079595848595,-0.0005044715506715,-0.0005310409035409,-0.0005551489621489
-0.000519086080586,-0.0005279196581196,-0.0004622793650793,0.0005212355067155,-2.735006105006077e-05,-0.0004954419291819,-0.0005334998778998,-0.0007572968253968,-0.0006200581440781,-0.0005135345543345,-0.0005431102564102,-0.0005672183150183
-0.000519086080586,-0.0005309536019536,-0.0004683619047619,0.0005242658119658,-2.4310549450549165e-05,-0.0004984814652014,-0.0005334998778998,-0.0007572968253968,-0.0006230827838827,-0.0005135345543345,-0.0005461275946275,-0.0005702356532356
-0.0005281929670329,-0.0005309536019536,-0.0004561968253968,0.0005272961172161,-3.6468595848595565e-05,-0.0004924023931623,-0.0005274026862026,-0.0007451317460317,-0.0006170335042735,-0.0005105135531135,-0.0005431102564102,-0.0005672183150183
-0.000519086080586,-0.0005339875457875,-0.000459238095238,0.0005242658119658,-3.0389572649572364e-05,-0.0004954419291819,-0.0005334998778998,-0.0007451317460317,-0.0006170335042735,-0.0005135345543345,-0.0005461275946275,-0.0005672183150183
-0.0005160504517704,-0.0005279196581196,-0.0004622793650793,0.0005212355067155,-2.735006105006077e-05,-0.0004954419291819,-0.0005365484737484,-0.0007451317460317,-0.0006140088644688,-0.0005105135531135,-0.0005431102564102,-0.0005642009768009
-0.0005221217094017,-0.0005218517704517,-0.0004531555555555,0.0005212355067155,-3.342908424908396e-05,-0.0004863233211233,-0.0005334998778998,-0.0007451317460317,-0.0006140088644688,-0.0005074925518925,-0.0005400929181929,-0.0005611836385836
-0.0005251573382173,-0.0005218517704517,-0.0004531555555555,0.0005212355067155,-3.6468595848595565e-05,-0.0004863233211233,-0.0005304512820512,-0.000748173015873,-0.0006140088644688,-0.0005074925518925,-0.0005400929181929,-0.0005611836385836
-0.0005312285958485,-0.0005218517704517,-0.000447073015873,0.0005242658119658,-4.254761904761877e-05,-0.0004832837851037,-0.000524354090354,-0.000748173015873,-0.0006109842246642,-0.0005074925518925,-0.0005370755799755,-0.0005581663003663
-0.0005251573382173,-0.0005188178266178,-0.0004440317460317,0.0005212355067155,-3.950810744810717e-05,-0.0004802442490842,-0.0005213054945054,-0.0007420904761904,-0.0006109842246642,-0.0005074925518925,-0.0005340582417582,-0.0005551489621489
-0.0005160504517704,-0.000506682051282,-0.000447073015873,0.0005091142857142,-3.342908424908396e-05,-0.0004772047130647,-0.0005182568986568,-0.0007390492063492,-0.0006049349450549,-0.0005014505494505,-0.0005310409035409,-0.0005551489621489
-0.0005099791941391,-0.0005036481074481,-0.0004501142857142,0.0005060839804639,-3.0389572649572364e-05,-0.0004772047130647,-0.0005182568986568,-0.0007360079365079,-0.0006049349450549,-0.0004984295482295,-0.0005340582417582,-0.0005551489621489
-0.0005039079365079,-0.0005006141636141,-0.0004501142857142,0.0005000233699633,-2.735006105006077e-05,-0.0004741651770451,-0.0005121597069597,-0.0007299253968253,-0.0006019103052503,-0.0004984295482295,-0.0005310409035409,-0.0005581663003663
-0.0005008723076923,-0.0004915123321123,-0.0004409904761904,0.0004939627594627,-3.0389572649572364e-05,-0.0004650465689865,-0.0005060625152625,-0.0007208015873015,-0.0005928363858363,-0.0004923875457875,-0.0005280235653235,-0.0005521316239316
-0.0005008723076923,-0.0004672407814407,-0.0004166603174603,0.0004818415384615,-4.254761904761877e-05,-0.0004407302808302,-0.0004938681318681,-0.0007116777777777,-0.0005777131868131,-0.0004772825396825,-0.0005099195360195,-0.0005340275946275
-0.0005008723076923,-0.0004429692307692,-0.0003953714285714,0.0004697203174603,-5.166615384615356e-05,-0.0004194535286935,-0.0004816737484737,-0.0006964714285714,-0.0005595653479853,-0.0004591565323565,-0.0004948328449328,-0.0005189409035409
-0.0004856941636141,-0.0004308334554334,-0.0003953714285714,0.000457599096459,-4.558713064713037e-05,-0.0004133744566544,-0.0004847223443223,-0.0006873476190476,-0.0005504914285714,-0.0004500935286935,-0.0004887981684981,-0.0005159235653235
-0.0004765872771672,-0.0004247655677655,-0.0003984126984126,0.0004485081807081,-3.950810744810717e-05,-0.0004103349206349,-0.0004938681318681,-0.000681265079365,-0.0005444421489621,-0.0004470725274725,-0.0004857808302808,-0.0005159235653235
-0.000470516019536,-0.0004156637362637,-0.0003984126984126,0.0004424475702075,-3.6468595848595565e-05,-0.0004072953846153,-0.0004969167277167,-0.0006751825396825,-0.0005414175091575,-0.0004440515262515,-0.0004827634920634,-0.0005129062271062
-0.0004644447619047,-0.0004065619047619,-0.0003984126984126,0.0004333566544566,-3.342908424908396e-05,-0.0004012163125763,-0.0005182568986568,-0.0006782238095238,-0.0005383928693528,-0.0004410305250305,-0.0004797461538461,-0.0005098888888888
-0.0004644447619047,-0.0004217316239316,-0.000413619047619,0.0004424475702075,-2.4310549450549165e-05,-0.0004164139926739,-0.00055484004884,-0.0007025539682539,-0.0005565407081807,-0.0004531145299145,-0.0004857808302808,-0.0005129062271062
-0.000470516019536,-0.0004460031746031,-0.0004288253968253,0.000457599096459,-2.1271037851037568e-05,-0.0004376907448107,-0.000570083028083,-0.0007208015873015,-0.0005746885470085,-0.0004682195360195,-0.0005008675213675,-0.0005249755799755
-0.0004917654212454,-0.0004642068376068,-0.0004288253968253,0.0004757809279609,-3.0389572649572364e-05,-0.0004468093528693,-0.0005578886446886,-0.0007299253968253,-0.0005837624664224,-0.0004742615384615,-0.0005069021978021,-0.0005310102564102
-0.0005099791941391,-0.0004854444444444,-0.0004288253968253,0.000496993064713,-3.950810744810717e-05,-0.0004559279609279,-0.0005517914529914,-0.0007420904761904,-0.0005928363858363,-0.0004833245421245,-0.0005129368742368,-0.0005370449328449
-0.0005069435653235,-0.0004975802197802,-0.0004409904761904,0.0005000233699633,-3.342908424908396e-05,-0.0004680861050061,-0.0005517914529914,-0.0007420904761904,-0.0006019103052503,-0.0004863455433455,-0.0005189715506715,-0.0005370449328449
-0.0004856941636141,-0.0004945462759462,-0.000459238095238,0.0004879021489621,-1.2152503052502767e-05,-0.0004772047130647,-0.0005578886446886,-0.0007390492063492,-0.0006049349450549,-0.0004893665445665,-0.0005159542124542,-0.0005340275946275
-0.0004765872771672,-0.0004884783882783,-0.0004653206349206,0.0004818415384615,-6.07347985347957e-06,-0.0004772047130647,-0.0005670344322344,-0.0007451317460317,-0.0006049349450549,-0.0004923875457875,-0.0005159542124542,-0.0005370449328449
-0.0004796229059829,-0.0005097159951159,-0.0004805269841269,0.0004939627594627,5.543345543628675e-09,-0.0004954419291819,-0.000570083028083,-0.0007542555555555,-0.0006200581440781,-0.0005044715506715,-0.0005310409035409,-0.0005491142857142
-0.0004856941636141,-0.0005309536019536,-0.0004957333333333,0.0005060839804639,3.045054945055228e-06,-0.0005136791452991,-0.0005609372405372,-0.0007633793650793,-0.0006382059829059,-0.0005195765567765,-0.0005461275946275,-0.0005611836385836
-0.000494801050061,-0.0005370214896214,-0.000492692063492,0.0005151748962148,5.543345543628675e-09,-0.0005136791452991,-0.0005609372405372,-0.0007664206349206,-0.0006412306227106,-0.0005195765567765,-0.0005461275946275,-0.0005642009768009
-0.0004887297924297,-0.0005370214896214,-0.0005018158730158,0.0005121445909645,6.084566544566828e-06,-0.0005197582173382,-0.0005609372405372,-0.0007664206349206,-0.0006412306227106,-0.0005225975579975,-0.0005491449328449,-0.0005672183150183
-0.0005008723076923,-0.0005430893772893,-0.000492692063492,0.0005212355067155,-3.03396825396797e-06,-0.0005167186813186,-0.0005578886446886,-0.0007694619047619,-0.0006412306227106,-0.0005256185592185,-0.0005491449328449,-0.0005702356532356
-0.0005312285958485,-0.0005521912087912,-0.0004714031746031,0.0005394173382173,-3.0389572649572364e-05,-0.0005106396092796,-0.0005456942612942,-0.0007694619047619,-0.0006412306227106,-0.0005225975579975,-0.0005461275946275,-0.0005672183150183
-0.0005464067399267,-0.000561293040293,-0.0004653206349206,0.0005515385592185,-3.950810744810717e-05,-0.0005136791452991,-0.000539597069597,-0.0007694619047619,-0.0006442552625152,-0.0005256185592185,-0.0005521622710622,-0.0005702356532356
-0.0005464067399267,-0.0005734288156288,-0.0004744444444444,0.0005575991697191,-3.6468595848595565e-05,-0.0005227977533577,-0.000539597069597,-0.0007785857142857,-0.0006533291819291,-0.0005346815628815,-0.0005612142857142,-0.0005792876678876
-0.0005433711111111,-0.0005794967032967,-0.0004835682539682,0.0005606294749694,-3.0389572649572364e-05,-0.0005319163614163,-0.0005456942612942,-0.0007816269841269,-0.0006593784615384,-0.0005377025641025,-0.0005642316239316,-0.0005792876678876
-0.0005372998534798,-0.0005764627594627,-0.0004866095238095,0.0005545688644688,-2.4310549450549165e-05,-0.0005319163614163,-0.0005487428571428,-0.0007816269841269,-0.0006593784615384,-0.0005407235653235,-0.0005642316239316,-0.000582305006105
-0.0005372998534798,-0.0005734288156288,-0.000492692063492,0.0005545688644688,-2.1271037851037568e-05,-0.0005319163614163,-0.0005487428571428,-0.0007846682539682,-0.0006593784615384,-0.0005407235653235,-0.0005642316239316,-0.000582305006105
-0.0005372998534798,-0.0005734288156288,-0.0004866095238095,0.0005545688644688,-2.4310549450549165e-05,-0.0005288768253968,-0.0005487428571428,-0.0007846682539682,-0.0006593784615384,-0.0005407235653235,-0.0005672489621489,-0.000582305006105
-0.0005372998534798,-0.0005673609279609,-0.0004866095238095,0.0005515385592185,-2.4310549450549165e-05,-0.0005258372893772,-0.0005487428571428,-0.0007816269841269,-0.0006563538217338,-0.0005377025641025,-0.0005612142857142,-0.0005792876678876
-0.0005342642246642,-0.0005643269841269,-0.0004866095238095,0.0005485082539682,-2.4310549450549165e-05,-0.0005258372893772,-0.00055484004884,-0.0007816269841269,-0.0006563538217338,-0.0005346815628815,-0.0005612142857142,-0.0005762703296703
-0.0005342642246642,-0.0005643269841269,-0.0004866095238095,0.0005485082539682,-2.4310549450549165e-05,-0.0005258372893772,-0.0005578886446886,-0.0007785857142857,-0.0006503045421245,-0.0005346815628815,-0.0005581969474969,-0.0005762703296703
-0.0005433711111111,-0.0005643269841269,-0.0004714031746031,0.0005515385592185,-3.6468595848595565e-05,-0.0005167186813186,-0.0005517914529914,-0.0007755444444444,-0.0006442552625152,-0.0005316605616605,-0.0005551796092796,-0.0005732529914529
-0.0005403354822954,-0.000558259096459,-0.0004683619047619,0.0005485082539682,-3.6468595848595565e-05,-0.0005136791452991,-0.0005517914529914,-0.0007816269841269,-0.0006442552625152,-0.0005316605616605,-0.0005551796092796,-0.0005732529914529
-0.0005342642246642,-0.0005491572649572,-0.0004653206349206,0.0005394173382173,-3.342908424908396e-05,-0.00050760007326,-0.00055484004884,-0.0007816269841269,-0.0006412306227106,-0.0005256185592185,-0.0005491449328449,-0.0005672183150183
-0.0005433711111111,-0.0005430893772893,-0.0004501142857142,0.0005424476434676,-4.558713064713037e-05,-0.0004954419291819,-0.0005578886446886,-0.0007785857142857,-0.0006382059829059,-0.0005165555555555,-0.0005431102564102,-0.0005581663003663
-0.0005372998534798,-0.0005400554334554,-0.0004531555555555,0.000536387032967,-4.254761904761877e-05,-0.0004954419291819,-0.0005609372405372,-0.0007633793650793,-0.0006230827838827,-0.0005135345543345,-0.0005431102564102,-0.0005642009768009
-0.0005464067399267,-0.0005279196581196,-0.0004349079365079,0.000536387032967,-5.470566544566516e-05,-0.0004802442490842,-0.0005517914529914,-0.0007208015873015,-0.0005716639072039,-0.0004954085470085,-0.0005461275946275,-0.0005792876678876
-0.0005464067399267,-0.000455105006105,-0.0003619174603174,0.0005000233699633,-9.117980463980436e-05,-0.0004072953846153,-0.0005426456654456,-0.0006690999999999,-0.0004869739926739,-0.0004440515262515,-0.0005189715506715,-0.0005672183150183
-0.0005008723076923,-0.0003094757020757,-0.0002585142857142,0.0004030536019536,-0.0001215749206349,-0.0002826744078144,-0.0005639858363858,-0.0005626555555555,-0.0003569144810744,-0.0003232114774114,-0.0004284514041514,-0.0005129062271062
-0.0003915896703296,-0.0001092354090354,-0.0001763999999999,0.000248508034188,-0.0001063773626373,-0.0001428557509157,-0.0006158119658119,-0.0004227571428571,-0.0001724114529914,-0.0001238253968253,-0.0002775844932844,-0.0004103167277167
-0.0002367726007326,0.0001638195360195,-5.474920634920625e-05,3.6386666666666695e-05,-9.117980463980436e-05,5.471409035409032e-05,-0.0007469015873015,-0.0004592523809523,-6.984126984207251e-09,0.0001269177045177,-4.52494505494507e-05,-0.0002232417582417
-6.981301587301614e-05,0.0005187909645909,0.0001307682539682,-0.0002242195848595,-0.0001002983394383,0.0003252327960927,-0.0010060322344322,-0.0007725031746031,9.980612942612936e-05,0.0004139128205128,0.0002655363858363,6.038803418803358e-05
0.0001001821978021,0.0008191514041514,0.0002615428571428,-0.000457553089133,-7.902175824175796e-05,0.0005410398534798,-0.0013627179487179,-0.0012043634920634,6.351045177045169e-05,0.0006495509157509,0.0005672702075702,0.0003651391941391
0.0002094648351648,0.0010163577533577,0.0003436571428571,-0.0006120986568986,-6.686371184371155e-05,0.0006808585103785,-0.0016950148962148,-0.0015693158730158,-6.654905982905991e-05,0.0007583069597069,0.0007694318681318,0.0006216129426129
0.0002246429792429,0.0008525247863247,0.0001642222222222,-0.000536341025641,3.0400659340659626e-05,0.0005076049572649,-0.0018352503052503,-0.0017669984126984,-0.0003659884004884,0.0005136058608058,0.0006487383394383,0.0006246302808302
2.732710622710595e-05,0.000242702075702,-0.0002433079365079,-0.0001333104273504,0.000133744053724,2.442002441966906e-09,-0.0016889177045177,-0.0019068968253968,-0.00085598004884,-7.851037851037902e-05,0.0001870855921855,0.0003319484737484
-0.0002732001465201,-0.0001668803418803,-0.0003436698412698,0.0002182049816849,3.3440170940171216e-05,-0.0002553185836385,-0.0014755159951159,-0.0021137031746031,-0.0012401093040293,-0.0005286395604395,-0.0001508562881562,0.0001147001221001
-0.0004674803907203,-0.0003367811965811,-0.0003193396825396,0.0004000232967032,-7.294273504273476e-05,-0.0003282674481074,-0.001301746031746,-0.0020924142857142,-0.0013641195360195,-0.0007280256410256,-0.0003318965811965,-3.3149450549451145e-05
-0.0005403354822954,-0.0004642068376068,-0.0003771238095238,0.0005000233699633,-8.206126984126955e-05,-0.0004194535286935,-0.0011676078144078,-0.0018430301587301,-0.0012824542612942,-0.0007672986568986,-0.0004495727716727,-0.0001870336996337
-0.0005524779975579,-0.0005036481074481,-0.0004044952380952,0.0005272961172161,-7.294273504273476e-05,-0.0004528884249084,-0.0010517611721611,-0.001560192063492,-0.0011191237118437,-0.0007129206349206,-0.0004887981684981,-0.0002986752136752
-0.0005524779975579,-0.0005097159951159,-0.0004105777777777,0.0005303264224664,-6.990322344322315e-05,-0.0004589674969474,-0.0009054285714285,-0.0013016841269841,-0.000964867081807,-0.0006464586080586,-0.0005069021978021,-0.0003801433455433
-0.0005342642246642,-0.0005127499389499,-0.0004318666666666,0.0005212355067155,-5.166615384615356e-05,-0.0004711256410256,-0.0007590959706959,-0.001064465079365,-0.0008438814896214,-0.0005951015873015,-0.0005219888888888,-0.0004495421245421
-0.0005221217094017,-0.0004975802197802,-0.0004288253968253,0.0005091142857142,-4.558713064713037e-05,-0.000462007032967,-0.0006371521367521,-0.0008819888888888,-0.0007349944566544,-0.0005437445665445,-0.0005159542124542,-0.0004857501831501
-0.0005160504517704,-0.0004672407814407,-0.0004044952380952,0.0004909324542124,-5.470566544566516e-05,-0.0004346512087912,-0.0005761802197802,-0.0007694619047619,-0.0006533291819291,-0.0004984295482295,-0.0004978501831501,-0.0004857501831501
-0.0005099791941391,-0.0004611728937728,-0.0004014539682539,0.0004848718437118,-5.470566544566516e-05,-0.0004316116727716,-0.0005487428571428,-0.0007208015873015,-0.0006170335042735,-0.0004833245421245,-0.0004918155067155,-0.0004887675213675
-0.0005160504517704,-0.0004733086691086,-0.0004105777777777,0.0004939627594627,-5.166615384615356e-05,-0.0004407302808302,-0.0005365484737484,-0.0006995126984126,-0.0006140088644688,-0.0004863455433455,-0.0005008675213675,-0.0005068715506715
-0.000519086080586,-0.0004884783882783,-0.0004197015873015,0.0005030536752136,-4.862664224664196e-05,-0.0004528884249084,-0.000524354090354,-0.0006903888888888,-0.0006140088644688,-0.0004984295482295,-0.0005129368742368,-0.0005249755799755
-0.0005221217094017,-0.0004915123321123,-0.0004227428571428,0.0005060839804639,-4.862664224664196e-05,-0.0004559279609279,-0.0005091111111111,-0.0006782238095238,-0.0006109842246642,-0.0005014505494505,-0.0005219888888888,-0.0005340275946275
-0.0005251573382173,-0.0004945462759462,-0.0004257841269841,0.0005091142857142,-4.862664224664196e-05,-0.0004589674969474,-0.0004999653235653,-0.0006630174603174,-0.0006079595848595,-0.0004984295482295,-0.0005280235653235,-0.0005400622710622
-0.000519086080586,-0.0005006141636141,-0.0004379492063492,0.0005091142857142,-3.950810744810717e-05,-0.0004680861050061,-0.0004969167277167,-0.0006508523809523,-0.0006049349450549,-0.0004984295482295,-0.0005280235653235,-0.0005430796092796
-0.0005069435653235,-0.000506682051282,-0.0004531555555555,0.0005060839804639,-2.735006105006077e-05,-0.0004802442490842,-0.0004969167277167,-0.0006417285714285,-0.0006049349450549,-0.0004984295482295,-0.0005340582417582,-0.0005521316239316
-0.0005160504517704,-0.0005097159951159,-0.000447073015873,0.0005121445909645,-3.342908424908396e-05,-0.0004772047130647,-0.0004877709401709,-0.0006295634920634,-0.0005988856654456,-0.0004923875457875,-0.0005280235653235,-0.0005521316239316
-0.0005403354822954,-0.0005036481074481,-0.000413619047619,0.0005212355067155,-6.382420024419996e-05,-0.0004589674969474,-0.0004786251526251,-0.0006173984126984,-0.0005898117460317,-0.0004803035409035,-0.0005159542124542,-0.0005370449328449
-0.000519086080586,-0.0005006141636141,-0.0004349079365079,0.0005091142857142,-4.254761904761877e-05,-0.0004680861050061,-0.0004847223443223,-0.0006143571428571,-0.0005928363858363,-0.0004863455433455,-0.0005219888888888,-0.0005430796092796
-0.0005008723076923,-0.0004975802197802,-0.0004501142857142,0.000496993064713,-2.4310549450549165e-05,-0.0004741651770451,-0.0004938681318681,-0.0006113158730158,-0.000595861025641,-0.0004893665445665,-0.0005280235653235,-0.0005491142857142
-0.0005039079365079,-0.0004975802197802,-0.000447073015873,0.0005000233699633,-2.735006105006077e-05,-0.0004711256410256,-0.0004938681318681,-0.0006082746031746,-0.000595861025641,-0.0004923875457875,-0.0005280235653235,-0.0005491142857142
-0.0005069435653235,-0.0005006141636141,-0.000447073015873,0.0005030536752136,-3.0389572649572364e-05,-0.0004741651770451,-0.0004908195360195,-0.0006052333333333,-0.000595861025641,-0.0004923875457875,-0.0005310409035409,-0.0005491142857142
-0.0005130148229548,-0.0005006141636141,-0.0004379492063492,0.0005060839804639,-3.6468595848595565e-05,-0.0004680861050061,-0.0004877709401709,-0.0005991507936507,-0.0005928363858363,-0.0004893665445665,-0.0005280235653235,-0.0005491142857142
-0.0005160504517704,-0.0005006141636141,-0.0004349079365079,0.0005060839804639,-3.950810744810717e-05,-0.0004680861050061,-0.0004908195360195,-0.0005961095238095,-0.0005898117460317,-0.0004863455433455,-0.0005250062271062,-0.0005491142857142
-0.0005130148229548,-0.0004975802197802,-0.0004349079365079,0.0005030536752136,-3.950810744810717e-05,-0.0004650465689865,-0.0004908195360195,-0.0005900269841269,-0.0005867871062271,-0.0004863455433455,-0.0005250062271062,-0.0005460969474969
-0.0005130148229548,-0.0004915123321123,-0.0004318666666666,0.0005000233699633,-3.950810744810717e-05,-0.000462007032967,-0.0004908195360195,-0.0005809031746031,-0.0005837624664224,-0.0004803035409035,-0.0005219888888888,-0.0005430796092796
-0.0005099791941391,-0.0004884783882783,-0.0004318666666666,0.000496993064713,-3.950810744810717e-05,-0.0004589674969474,-0.0004877709401709,-0.0005778619047619,-0.0005837624664224,-0.0004833245421245,-0.0005250062271062,-0.0005460969474969
-0.0005008723076923,-0.0004854444444444,-0.0004379492063492,0.0004909324542124,-3.0389572649572364e-05,-0.000462007032967,-0.0004877709401709,-0.0005748206349206,-0.0005867871062271,-0.0004863455433455,-0.0005280235653235,-0.0005491142857142
-0.0005008723076923,-0.0004793765567765,-0.0004379492063492,0.0004879021489621,-3.0389572649572364e-05,-0.0004589674969474,-0.0004877709401709,-0.0005656968253968,-0.0005777131868131,-0.0004833245421245,-0.0005250062271062,-0.0005491142857142
-0.0005008723076923,-0.0004793765567765,-0.0004349079365079,0.0004879021489621,-3.342908424908396e-05,-0.0004559279609279,-0.0004877709401709,-0.0005596142857142,-0.0005746885470085,-0.0004772825396825,-0.0005250062271062,-0.0005430796092796
-0.0005039079365079,-0.0004854444444444,-0.0004349079365079,0.0004939627594627,-3.342908424908396e-05,-0.0004589674969474,-0.0004816737484737,-0.0005474492063492,-0.0005716639072039,-0.0004772825396825,-0.0005250062271062,-0.0005491142857142
-0.0005039079365079,-0.0004915123321123,-0.0004409904761904,0.000496993064713,-3.0389572649572364e-05,-0.0004650465689865,-0.0004755765567765,-0.0005352841269841,-0.0005656146275946,-0.0004772825396825,-0.0005280235653235,-0.0005521316239316
-0.0004978366788766,-0.0004884783882783,-0.000447073015873,0.0004909324542124,-2.4310549450549165e-05,-0.0004680861050061,-0.0004725279609279,-0.0005261603174603,-0.0005625899877899,-0.0004772825396825,-0.0005280235653235,-0.0005521316239316
-0.000494801050061,-0.0004884783882783,-0.0004440317460317,0.0004909324542124,-2.4310549450549165e-05,-0.0004650465689865,-0.0004725279609279,-0.0005170365079365,-0.0005625899877899,-0.0004742615384615,-0.0005250062271062,-0.0005491142857142
-0.000494801050061,-0.0004854444444444,-0.0004409904761904,0.0004879021489621,-2.735006105006077e-05,-0.000462007032967,-0.0004694793650793,-0.0005048714285714,-0.0005565407081807,-0.0004682195360195,-0.0005219888888888,-0.0005460969474969
-0.0004978366788766,-0.0004824105006105,-0.0004409904761904,0.0004879021489621,-2.735006105006077e-05,-0.000462007032967,-0.0004664307692307,-0.0004957476190476,-0.000553516068376,-0.0004682195360195,-0.0005189715506715,-0.0005460969474969
-0.000494801050061,-0.0004824105006105,-0.0004379492063492,0.0004879021489621,-2.735006105006077e-05,-0.0004589674969474,-0.0004633821733821,-0.0004866238095238,-0.0005504914285714,-0.0004682195360195,-0.0005219888888888,-0.0005491142857142
-0.000494801050061,-0.0004793765567765,-0.0004349079365079,0.0004848718437118,-3.0389572649572364e-05,-0.0004559279609279,-0.0004603335775335,-0.0004744587301587,-0.0005474667887667,-0.0004651985347985,-0.0005189715506715,-0.0005491142857142
-0.000494801050061,-0.0004763426129426,-0.0004379492063492,0.0004848718437118,-2.735006105006077e-05,-0.0004559279609279,-0.0004572849816849,-0.0004622936507936,-0.0005414175091575,-0.0004621775335775,-0.0005189715506715,-0.0005491142857142
-0.0004917654212454,-0.0004793765567765,-0.0004409904761904,0.0004848718437118,-2.4310549450549165e-05,-0.0004589674969474,-0.0004542363858363,-0.0004501285714285,-0.0005353682295482,-0.0004591565323565,-0.0005189715506715,-0.0005460969474969
-0.0004887297924297,-0.0004793765567765,-0.0004379492063492,0.0004818415384615,-2.4310549450549165e-05,-0.0004589674969474,-0.0004511877899877,-0.0004349222222222,-0.0005293189499389,-0.0004561355311355,-0.0005159542124542,-0.0005460969474969
-0.0004856941636141,-0.0004793765567765,-0.0004440317460317,0.0004818415384615,-2.1271037851037568e-05,-0.000462007032967,-0.0004481391941391,-0.0004197158730158,-0.0005293189499389,-0.0004561355311355,-0.0005159542124542,-0.0005491142857142
-0.0004826585347985,-0.0004763426129426,-0.000447073015873,0.0004788112332112,-1.823152625152597e-05,-0.000462007032967,-0.0004481391941391,-0.0004014682539682,-0.0005232696703296,-0.0004531145299145,-0.0005159542124542,-0.0005491142857142
-0.0004735516483516,-0.0004672407814407,-0.0004440317460317,0.0004697203174603,-1.5192014652014368e-05,-0.0004559279609279,-0.000442042002442,-0.0003801793650793,-0.0005111711111111,-0.0004470725274725,-0.0005099195360195,-0.0005430796092796
-0.0004674803907203,-0.0004611728937728,-0.0004440317460317,0.0004636597069597,-1.2152503052502767e-05,-0.0004528884249084,-0.000442042002442,-0.0003619317460317,-0.0005051218315018,-0.0004410305250305,-0.0005038848595848,-0.0005340275946275
-0.0004796229059829,-0.0004581389499389,-0.0004318666666666,0.00046669001221,-2.4310549450549165e-05,-0.0004437698168498,-0.0004389934065934,-0.0003376015873015,-0.0004990725518925,-0.0004349885225885,-0.0005008675213675,-0.0005340275946275
-0.0004674803907203,-0.000455105006105,-0.0004379492063492,0.0004606294017094,-1.5192014652014368e-05,-0.0004468093528693,-0.0004328962148962,-0.0003254365079365,-0.0004960479120879,-0.0004349885225885,-0.0005038848595848,-0.0005400622710622
-0.0004523022466422,-0.0004429692307692,-0.0004409904761904,0.0004454778754578,-6.07347985347957e-06,-0.0004407302808302,-0.0004328962148962,-0.0003071888888888,-0.0004899986324786,-0.0004380095238095,-0.0005038848595848,-0.0005400622710622
-0.0004523022466422,-0.0004308334554334,-0.0004288253968253,0.0004394172649572,-1.2152503052502767e-05,-0.0004285721367521,-0.0004328962148962,-0.0002798174603174,-0.0004809247130647,-0.0004289465201465,-0.0004978501831501,-0.0005310102564102
-0.0004492666178266,-0.0004186976800976,-0.0004257841269841,0.0004333566544566,-1.2152503052502767e-05,-0.000422493064713,-0.0004359448107448,-0.0002554873015873,-0.0004688261538461,-0.0004229045177045,-0.0004918155067155,-0.0005249755799755
-0.0004340884737484,-0.0004095958485958,-0.0004318666666666,0.0004212354334554,5.543345543628675e-09,-0.0004194535286935,-0.0004328962148962,-0.0002341984126984,-0.0004627768742368,-0.0004168625152625,-0.0004887981684981,-0.0005279929181929
-0.0004340884737484,-0.000400494017094,-0.0004197015873015,0.0004151748229548,-6.07347985347957e-06,-0.0004103349206349,-0.0004237504273504,-0.0002007444444444,-0.000444629035409,-0.0004047785103785,-0.0004827634920634,-0.0005189409035409
-0.0004371241025641,-0.0003913921855921,-0.0004075365079365,0.0004121445177045,-1.5192014652014368e-05,-0.0003981767765567,-0.0004176532356532,-0.0001672904761904,-0.0004295058363858,-0.0003896735042735,-0.0004706941391941,-0.0005038542124542
-0.0004219459584859,-0.0003701545787545,-0.0003984126984126,0.0003939626862026,-1.2152503052502767e-05,-0.000382979096459,-0.0004176532356532,-0.000139919047619,-0.0004174072771672,-0.0003806105006105,-0.0004556074481074,-0.0004948021978021
-0.000412839072039,-0.0003549848595848,-0.0003923301587301,0.0003818414652014,-9.11299145299117e-06,-0.0003738604884004,-0.0004176532356532,-0.0001155888888888,-0.0004083333577533,-0.0003745684981684,-0.0004465554334554,-0.0004827328449328
-0.000412839072039,-0.000342849084249,-0.0003771238095238,0.0003757808547008,-1.823152625152597e-05,-0.0003586628083028,-0.0004176532356532,-9.734126984126952e-05,-0.000402284078144,-0.0003655054945054,-0.0004375034188034,-0.0004766981684981
-0.000412839072039,-0.0003246454212454,-0.0003619174603174,0.0003666899389499,-2.4310549450549165e-05,-0.0003434651282051,-0.0004146046398046,-8.213492063492033e-05,-0.0003932101587301,-0.0003594634920634,-0.0004314687423687,-0.0004646288156288
-0.0004037321855921,-0.0003064417582417,-0.0003527936507936,0.0003545687179487,-2.4310549450549165e-05,-0.0003282674481074,-0.0004146046398046,-6.692857142857113e-05,-0.0003841362393162,-0.0003504004884004,-0.0004193993894993,-0.0004555768009768
-0.0003946252991452,-0.0002791362637362,-0.0003375873015873,0.0003363868864468,-2.735006105006077e-05,-0.0003069906959706,-0.0004176532356532,-5.476349206349176e-05,-0.0003780869597069,-0.0003413374847374,-0.00040733003663,-0.0004404901098901
-0.0003915896703296,-0.0002548647130647,-0.0003223809523809,0.0003212353601953,-3.342908424908396e-05,-0.0002887534798534,-0.0004207018315018,-4.259841269841239e-05,-0.0003720376800976,-0.0003352954822954,-0.0003952606837606,-0.0004254034188034
-0.0003915896703296,-0.0002457628815628,-0.0003071746031746,0.000318205054945,-4.254761904761877e-05,-0.0002765953357753,-0.0004176532356532,-3.651587301587271e-05,-0.0003659884004884,-0.0003262324786324,-0.0003862086691086,-0.0004163514041514
-0.0003855184126984,-0.0002275592185592,-0.000301092063492,0.0003060838339438,-4.254761904761877e-05,-0.0002644371916971,-0.0004176532356532,-3.651587301587271e-05,-0.0003569144810744,-0.0003111274725274,-0.0003741393162393,-0.0004012647130647
-0.0003764115262515,-0.0002154234432234,-0.0002950095238095,0.0002939626129426,-3.950810744810717e-05,-0.0002553185836385,-0.0004176532356532,-3.651587301587271e-05,-0.0003508652014652,-0.0003020644688644,-0.0003620699633699,-0.0003831606837606
-0.0003673046398046,-0.0002093555555555,-0.0002919682539682,0.000287902002442,-3.6468595848595565e-05,-0.0002492395115995,-0.0004237504273504,-4.259841269841239e-05,-0.0003478405616605,-0.0002960224664224,-0.0003530179487179,-0.0003741086691086
-0.0003673046398046,-0.0001941858363858,-0.0002828444444444,0.000278811086691,-4.254761904761877e-05,-0.0002370813675213,-0.0004328962148962,-6.084603174603144e-05,-0.0003508652014652,-0.0002930014652014,-0.0003409485958485,-0.0003590219780219
-0.0003733758974358,-0.0001790161172161,-0.000267638095238,0.0002757807814407,-5.166615384615356e-05,-0.0002218836874236,-0.000442042002442,-8.821746031746001e-05,-0.0003538898412698,-0.0002899804639804,-0.0003318965811965,-0.0003439352869352
-0.0003733758974358,-0.0001668803418803,-0.0002524317460317,0.0002697201709401,-6.078468864468836e-05,-0.0002097255433455,-0.0004542363858363,-0.0001247126984126,-0.0003599391208791,-0.0002899804639804,-0.0003258619047619,-0.0003348832722832
-0.0003764115262515,-0.0001699142857142,-0.0002493904761904,0.0002727504761904,-6.382420024419996e-05,-0.0002097255433455,-0.0004603335775335,-0.0001703317460317,-0.0003720376800976,-0.0002930014652014,-0.0003258619047619,-0.0003318659340659
-0.000388554041514,-0.0001668803418803,-0.0002341841269841,0.0002757807814407,-7.598224664224636e-05,-0.0002006069352869,-0.0004694793650793,-0.0002220333333333,-0.0003841362393162,-0.0002960224664224,-0.0003258619047619,-0.0003258312576312
-0.0003946252991452,-0.0001668803418803,-0.0002281015873015,0.000278811086691,-8.206126984126955e-05,-0.0001975673992673,-0.0004816737484737,-0.0002737349206349,-0.0003962347985347,-0.0003050854700854,-0.0003258619047619,-0.0003288485958485
-0.0004037321855921,-0.0001759821733821,-0.0002281015873015,0.000287902002442,-8.814029304029276e-05,-0.0002006069352869,-0.0004877709401709,-0.0003254365079365,-0.0004143826373626,-0.0003141484737484,-0.0003349139194139,-0.0003379006105006
-0.0004158747008547,-0.0002032876678876,-0.0002402666666666,0.0003091141391941,-8.814029304029276e-05,-0.0002218836874236,-0.0004938681318681,-0.0003832206349206,-0.0004355551159951,-0.0003322744810744,-0.0003530179487179,-0.0003529873015873
-0.0004340884737484,-0.0002275592185592,-0.0002463492063492,0.0003303262759462,-9.421931623931596e-05,-0.0002370813675213,-0.0004908195360195,-0.0004318809523809,-0.0004567275946275,-0.0003443584859584,-0.0003650873015873,-0.0003680739926739
-0.0004401597313797,-0.0002548647130647,-0.000267638095238,0.0003454778021978,-8.510078144078116e-05,-0.0002613976556776,-0.0004938681318681,-0.0004774999999999,-0.00047790007326,-0.0003624844932844,-0.0003831913308913,-0.000386178021978
-0.0004431953601953,-0.0002943059829059,-0.0003041333333333,0.0003666899389499,-6.990322344322315e-05,-0.000297872087912,-0.0005030139194139,-0.0005170365079365,-0.0005051218315018,-0.0003836315018315,-0.0004043126984126,-0.0004103167277167
-0.0004431953601953,-0.0003307133089133,-0.0003375873015873,0.0003848717704517,-5.166615384615356e-05,-0.0003343465201465,-0.0005030139194139,-0.0005535317460317,-0.0005293189499389,-0.0004047785103785,-0.000425434065934,-0.0004344554334554
-0.0004583735042735,-0.0003640866910866,-0.0003558349206349,0.0004091142124542,-5.166615384615356e-05,-0.0003586628083028,-0.0005030139194139,-0.0005900269841269,-0.0005504914285714,-0.0004198835164835,-0.000443538095238,-0.0004525594627594
-0.0004796229059829,-0.0003944261294261,-0.0003679999999999,0.0004363869597069,-5.470566544566516e-05,-0.0003799395604395,-0.0005030139194139,-0.0006204396825396,-0.0005686392673992,-0.0004380095238095,-0.0004616421245421,-0.0004706634920634
-0.0004887297924297,-0.0004186976800976,-0.0003832063492063,0.0004515384859584,-5.166615384615356e-05,-0.0004012163125763,-0.0005060625152625,-0.0006447698412698,-0.0005898117460317,-0.0004561355311355,-0.0004767288156288,-0.0004857501831501
-0.000494801050061,-0.0004399352869352,-0.0003984126984126,0.00046669001221,-4.862664224664196e-05,-0.0004194535286935,-0.0005091111111111,-0.0006630174603174,-0.0006109842246642,-0.0004712405372405,-0.0004918155067155,-0.0005008368742368
-0.0005039079365079,-0.0004672407814407,-0.0004166603174603,0.0004848718437118,-4.254761904761877e-05,-0.0004407302808302,-0.0005091111111111,-0.0006843063492063,-0.000629132063492,-0.0004863455433455,-0.0005069021978021,-0.0005189409035409
-0.0005099791941391,-0.0004854444444444,-0.0004257841269841,0.000496993064713,-4.254761904761877e-05,-0.0004559279609279,-0.0005091111111111,-0.0006964714285714,-0.0006382059829059,-0.0004954085470085,-0.0005159542124542,-0.0005310102564102
-0.0005221217094017,-0.0005006141636141,-0.0004288253968253,0.0005091142857142,-4.558713064713037e-05,-0.0004650465689865,-0.0004999653235653,-0.0007086365079365,-0.0006412306227106,-0.0004984295482295,-0.0005219888888888,-0.0005310102564102
-0.0005251573382173,-0.0005157838827838,-0.0004409904761904,0.0005182052014652,-4.254761904761877e-05,-0.0004772047130647,-0.0004969167277167,-0.0007177603174603,-0.0006503045421245,-0.0005044715506715,-0.0005280235653235,-0.0005340275946275
-0.0005221217094017,-0.0005279196581196,-0.0004561968253968,0.0005242658119658,-3.342908424908396e-05,-0.0004924023931623,-0.0004999653235653,-0.0007238428571428,-0.0006563538217338,-0.0005135345543345,-0.0005340582417582,-0.0005400622710622
-0.0005221217094017,-0.0005339875457875,-0.0004622793650793,0.0005272961172161,-3.0389572649572364e-05,-0.0004984814652014,-0.0005030139194139,-0.0007299253968253,-0.0006654277411477,-0.0005195765567765,-0.0005370755799755,-0.0005491142857142
-0.0005160504517704,-0.0005430893772893,-0.0004774857142857,0.0005272961172161,-1.823152625152597e-05,-0.0005106396092796,-0.0005030139194139,-0.0007329666666666,-0.0006745016605616,-0.0005225975579975,-0.0005461275946275,-0.0005551489621489
-0.000519086080586,-0.0005491572649572,-0.0004774857142857,0.0005333567277167,-2.1271037851037568e-05,-0.0005136791452991,-0.0005030139194139,-0.0007360079365079,-0.0006775263003663,-0.0005286395604395,-0.0005491449328449,-0.0005581663003663
-0.0005221217094017,-0.0005400554334554,-0.0004714031746031,0.0005303264224664,-2.4310549450549165e-05,-0.0005045605372405,-0.0005091111111111,-0.0007451317460317,-0.0006805509401709,-0.0005346815628815,-0.0005521622710622,-0.0005611836385836
-0.0005251573382173,-0.0005400554334554,-0.0004683619047619,0.0005303264224664,-2.735006105006077e-05,-0.0005045605372405,-0.0005121597069597,-0.0007451317460317,-0.0006835755799755,-0.0005377025641025,-0.0005551796092796,-0.0005642009768009
-0.0005372998534798,-0.0005521912087912,-0.0004653206349206,0.0005424476434676,-3.6468595848595565e-05,-0.00050760007326,-0.0005060625152625,-0.0007390492063492,-0.0006805509401709,-0.0005346815628815,-0.0005551796092796,-0.0005672183150183
-0.0005433711111111,-0.000561293040293,-0.0004683619047619,0.0005515385592185,-3.6468595848595565e-05,-0.0005136791452991,-0.0004999653235653,-0.0007360079365079,-0.0006805509401709,-0.0005377025641025,-0.0005612142857142,-0.0005702356532356
-0.0005494423687423,-0.0005643269841269,-0.0004653206349206,0.0005545688644688,-4.254761904761877e-05,-0.0005136791452991,-0.0004969167277167,-0.0007329666666666,-0.0006805509401709,-0.0005377025641025,-0.0005612142857142,-0.0005702356532356
-0.0005464067399267,-0.000558259096459,-0.0004653206349206,0.0005515385592185,-3.950810744810717e-05,-0.0005106396092796,-0.0004969167277167,-0.0007360079365079,-0.0006835755799755,-0.0005407235653235,-0.0005581969474969,-0.0005702356532356
-0.0005312285958485,-0.000558259096459,-0.0004805269841269,0.0005424476434676,-2.4310549450549165e-05,-0.0005197582173382,-0.0004999653235653,-0.0007360079365079,-0.0006866002197802,-0.0005467655677655,-0.0005672489621489,-0.0005762703296703
-0.0005251573382173,-0.0005643269841269,-0.000492692063492,0.0005424476434676,-1.5192014652014368e-05,-0.0005288768253968,-0.0005030139194139,-0.0007360079365079,-0.0006896248595848,-0.0005528075702075,-0.0005732836385836,-0.0005853223443223
-0.0005281929670329,-0.0005764627594627,-0.000492692063492,0.0005515385592185,-1.823152625152597e-05,-0.0005349558974358,-0.0004999653235653,-0.0007360079365079,-0.0006926494993894,-0.0005558285714285,-0.0005793183150183,-0.0005883396825396
-0.0005372998534798,-0.0005764627594627,-0.0004866095238095,0.0005545688644688,-2.4310549450549165e-05,-0.0005319163614163,-0.0004969167277167,-0.0007329666666666,-0.0006896248595848,-0.0005558285714285,-0.0005763009768009,-0.0005883396825396
-0.0005433711111111,-0.0005673609279609,-0.0004744444444444,0.0005545688644688,-3.342908424908396e-05,-0.0005197582173382,-0.0004908195360195,-0.0007268841269841,-0.0006835755799755,-0.0005497865689865,-0.0005702663003663,-0.0005792876678876
-0.0005464067399267,-0.0005673609279609,-0.0004714031746031,0.0005545688644688,-3.6468595848595565e-05,-0.0005197582173382,-0.0004908195360195,-0.0007177603174603,-0.0006775263003663,-0.0005437445665445,-0.0005672489621489,-0.0005732529914529
-0.0005464067399267,-0.0005794967032967,-0.0004866095238095,0.0005606294749694,-3.0389572649572364e-05,-0.0005319163614163,-0.0004877709401709,-0.0007116777777777,-0.0006775263003663,-0.0005437445665445,-0.0005672489621489,-0.0005762703296703
-0.0005464067399267,-0.0005825306471306,-0.0004896507936507,0.0005636597802197,-2.735006105006077e-05,-0.0005349558974358,-0.0004816737484737,-0.0007086365079365,-0.0006775263003663,-0.0005407235653235,-0.0005672489621489,-0.0005792876678876
-0.0005433711111111,-0.0005734288156288,-0.0004835682539682,0.0005575991697191,-3.0389572649572364e-05,-0.0005288768253968,-0.0004847223443223,-0.0007086365079365,-0.0006775263003663,-0.0005437445665445,-0.0005702663003663,-0.0005792876678876
-0.0005281929670329,-0.0005643269841269,-0.0004866095238095,0.0005454779487179,-2.1271037851037568e-05,-0.0005258372893772,-0.0004877709401709,-0.0007116777777777,-0.0006775263003663,-0.0005437445665445,-0.0005702663003663,-0.0005883396825396
-0.0005281929670329,-0.0005673609279609,-0.0004866095238095,0.0005454779487179,-2.1271037851037568e-05,-0.0005258372893772,-0.0004847223443223,-0.0007116777777777,-0.0006775263003663,-0.0005437445665445,-0.0005702663003663,-0.0005883396825396
-0.0005464067399267,-0.0005703948717948,-0.0004774857142857,0.0005575991697191,-3.342908424908396e-05,-0.0005227977533577,-0.0004816737484737,-0.0007055952380952,-0.000671477020757,-0.0005377025641025,-0.0005672489621489,-0.0005792876678876
-0.0005555136263736,-0.0005673609279609,-0.0004683619047619,0.0005606294749694,-4.254761904761877e-05,-0.0005167186813186,-0.0004786251526251,-0.0006995126984126,-0.0006684523809523,-0.0005346815628815,-0.0005642316239316,-0.0005762703296703
-0.0005372998534798,-0.000561293040293,-0.0004805269841269,0.0005485082539682,-2.735006105006077e-05,-0.0005197582173382,-0.0004847223443223,-0.0007025539682539,-0.0006684523809523,-0.0005346815628815,-0.0005642316239316,-0.0005762703296703
-0.0005221217094017,-0.0005552251526251,-0.0004866095238095,0.000536387032967,-1.823152625152597e-05,-0.0005197582173382,-0.0004908195360195,-0.0007055952380952,-0.0006745016605616,-0.0005346815628815,-0.0005642316239316,-0.0005792876678876
-0.0005312285958485,-0.0005461233211233,-0.0004653206349206,0.000536387032967,-3.342908424908396e-05,-0.0005045605372405,-0.0004908195360195,-0.0006995126984126,-0.0006684523809523,-0.0005316605616605,-0.0005612142857142,-0.0005762703296703
-0.0005433711111111,-0.0005430893772893,-0.0004501142857142,0.0005424476434676,-4.558713064713037e-05,-0.0004954419291819,-0.0004847223443223,-0.0006964714285714,-0.0006624031013431,-0.0005286395604395,-0.0005581969474969,-0.0005732529914529
-0.0005372998534798,-0.0005400554334554,-0.0004561968253968,0.000536387032967,-3.950810744810717e-05,-0.0004984814652014,-0.0004847223443223,-0.0006995126984126,-0.0006593784615384,-0.0005316605616605,-0.0005642316239316,-0.000582305006105
-0.0005342642246642,-0.0005400554334554,-0.000459238095238,0.000536387032967,-3.6468595848595565e-05,-0.0004984814652014,-0.0004816737484737,-0.0006964714285714,-0.0006593784615384,-0.0005316605616605,-0.0005672489621489,-0.0005853223443223
-0.0005342642246642,-0.0005370214896214,-0.0004561968253968,0.0005333567277167,-3.950810744810717e-05,-0.0004954419291819,-0.0004847223443223,-0.0006964714285714,-0.0006593784615384,-0.0005286395604395,-0.0005612142857142,-0.0005792876678876
-0.0005312285958485,-0.0005339875457875,-0.0004531555555555,0.0005303264224664,-3.950810744810717e-05,-0.0004924023931623,-0.0004877709401709,-0.0006964714285714,-0.0006563538217338,-0.0005225975579975,-0.0005521622710622,-0.0005732529914529
-0.0005342642246642,-0.0005370214896214,-0.0004561968253968,0.0005333567277167,-3.950810744810717e-05,-0.0004954419291819,-0.0004908195360195,-0.0006995126984126,-0.0006563538217338,-0.0005195765567765,-0.0005521622710622,-0.0005672183150183
-0.0005312285958485,-0.0005370214896214,-0.000459238095238,0.0005333567277167,-3.6468595848595565e-05,-0.0004984814652014,-0.0004908195360195,-0.0006964714285714,-0.0006563538217338,-0.0005165555555555,-0.0005491449328449,-0.0005642009768009
-0.0005221217094017,-0.0005370214896214,-0.0004622793650793,0.0005272961172161,-3.0389572649572364e-05,-0.0004984814652014,-0.0004908195360195,-0.0006934301587301,-0.0006503045421245,-0.0005135345543345,-0.0005431102564102,-0.0005611836385836
-0.0005160504517704,-0.0005339875457875,-0.0004653206349206,0.0005242658119658,-2.4310549450549165e-05,-0.0004984814652014,-0.0004938681318681,-0.0006964714285714,-0.0006533291819291,-0.0005105135531135,-0.0005400929181929,-0.0005551489621489
-0.000519086080586,-0.0005248857142857,-0.0004561968253968,0.0005212355067155,-3.0389572649572364e-05,-0.0004893628571428,-0.0004999653235653,-0.0007025539682539,-0.0006563538217338,-0.0005135345543345,-0.0005400929181929,-0.0005521316239316
-0.0005281929670329,-0.0005248857142857,-0.000447073015873,0.0005242658119658,-3.950810744810717e-05,-0.0004863233211233,-0.0005030139194139,-0.0007086365079365,-0.0006593784615384,-0.0005135345543345,-0.0005400929181929,-0.0005551489621489
-0.0005281929670329,-0.0005248857142857,-0.000447073015873,0.0005242658119658,-3.950810744810717e-05,-0.0004863233211233,-0.0004999653235653,-0.0007086365079365,-0.0006593784615384,-0.0005135345543345,-0.0005400929181929,-0.0005551489621489
-0.0005251573382173,-0.0005248857142857,-0.0004561968253968,0.0005242658119658,-3.342908424908396e-05,-0.0004893628571428,-0.0004908195360195,-0.0007086365079365,-0.0006593784615384,-0.0005165555555555,-0.0005431102564102,-0.0005551489621489
-0.0005221217094017,-0.0005309536019536,-0.000459238095238,0.0005242658119658,-3.0389572649572364e-05,-0.0004954419291819,-0.0004908195360195,-0.0007086365079365,-0.0006563538217338,-0.0005074925518925,-0.0005370755799755,-0.0005521316239316
-0.0005221217094017,-0.0005339875457875,-0.0004622793650793,0.0005272961172161,-3.0389572649572364e-05,-0.0004984814652014,-0.0004938681318681,-0.0007086365079365,-0.0006624031013431,-0.0005074925518925,-0.0005340582417582,-0.0005491142857142
-0.0005221217094017,-0.0005279196581196,-0.000459238095238,0.0005242658119658,-3.0389572649572364e-05,-0.0004924023931623,-0.0004938681318681,-0.0007177603174603,-0.0006684523809523,-0.0005135345543345,-0.0005370755799755,-0.0005521316239316
-0.000519086080586,-0.0005248857142857,-0.0004561968253968,0.0005212355067155,-3.0389572649572364e-05,-0.0004893628571428,-0.0004938681318681,-0.0007268841269841,-0.000671477020757,-0.0005195765567765,-0.0005431102564102,-0.0005551489621489
-0.0005221217094017,-0.0005309536019536,-0.0004561968253968,0.0005242658119658,-3.342908424908396e-05,-0.0004924023931623,-0.0004908195360195,-0.0007238428571428,-0.000671477020757,-0.0005165555555555,-0.0005461275946275,-0.0005581663003663
-0.000519086080586,-0.0005400554334554,-0.0004714031746031,0.0005272961172161,-2.4310549450549165e-05,-0.0005045605372405,-0.0004877709401709,-0.0007208015873015,-0.000671477020757,-0.0005165555555555,-0.0005431102564102,-0.0005551489621489
-0.0005160504517704,-0.0005370214896214,-0.0004714031746031,0.0005242658119658,-2.1271037851037568e-05,-0.0005045605372405,-0.0004877709401709,-0.0007268841269841,-0.0006745016605616,-0.0005195765567765,-0.0005461275946275,-0.0005551489621489
-0.0005221217094017,-0.0005339875457875,-0.000459238095238,0.0005272961172161,-3.0389572649572364e-05,-0.0004954419291819,-0.0004847223443223,-0.0007299253968253,-0.0006805509401709,-0.0005225975579975,-0.0005431102564102,-0.0005521316239316
-0.0005312285958485,-0.0005339875457875,-0.0004501142857142,0.0005303264224664,-3.950810744810717e-05,-0.0004924023931623,-0.0004816737484737,-0.0007360079365079,-0.0006805509401709,-0.0005225975579975,-0.0005431102564102,-0.0005521316239316
-0.0005251573382173,-0.0005309536019536,-0.000459238095238,0.0005272961172161,-3.342908424908396e-05,-0.0004954419291819,-0.0004816737484737,-0.0007360079365079,-0.0006835755799755,-0.0005195765567765,-0.0005431102564102,-0.0005551489621489
-0.0005160504517704,-0.0005339875457875,-0.0004683619047619,0.0005242658119658,-2.4310549450549165e-05,-0.000501521001221,-0.0004877709401709,-0.0007360079365079,-0.0006805509401709,-0.0005225975579975,-0.0005431102564102,-0.0005551489621489
-0.0005251573382173,-0.0005430893772893,-0.0004714031746031,0.0005333567277167,-2.735006105006077e-05,-0.00050760007326,-0.0004847223443223,-0.0007360079365079,-0.0006805509401709,-0.0005195765567765,-0.0005400929181929,-0.0005551489621489
-0.0005251573382173,-0.0005521912087912,-0.0004744444444444,0.000536387032967,-2.4310549450549165e-05,-0.0005136791452991,-0.0004816737484737,-0.0007390492063492,-0.0006835755799755,-0.0005256185592185,-0.0005431102564102,-0.0005551489621489
-0.0005221217094017,-0.0005552251526251,-0.0004805269841269,0.000536387032967,-2.1271037851037568e-05,-0.0005167186813186,-0.0004786251526251,-0.0007420904761904,-0.0006866002197802,-0.0005256185592185,-0.0005431102564102,-0.0005521316239316
-0.000519086080586,-0.0005491572649572,-0.0004805269841269,0.0005333567277167,-1.823152625152597e-05,-0.0005136791452991,-0.0004786251526251,-0.0007420904761904,-0.0006866002197802,-0.0005225975579975,-0.0005431102564102,-0.0005491142857142
-0.0005221217094017,-0.0005461233211233,-0.0004805269841269,0.0005333567277167,-2.1271037851037568e-05,-0.0005136791452991,-0.0004755765567765,-0.0007390492063492,-0.0006866002197802,-0.0005225975579975,-0.0005431102564102,-0.0005460969474969
-0.000519086080586,-0.0005491572649572,-0.0004805269841269,0.0005333567277167,-1.823152625152597e-05,-0.0005136791452991,-0.0004786251526251,-0.0007420904761904,-0.0006926494993894,-0.0005286395604395,-0.0005491449328449,-0.0005551489621489
-0.0005160504517704,-0.0005491572649572,-0.0004835682539682,0.0005303264224664,-1.5192014652014368e-05,-0.0005167186813186,-0.0004816737484737,-0.000748173015873,-0.0006986987789987,-0.0005377025641025,-0.0005581969474969,-0.0005672183150183
-0.000519086080586,-0.0005430893772893,-0.0004805269841269,0.0005303264224664,-1.823152625152597e-05,-0.0005106396092796,-0.0004847223443223,-0.0007542555555555,-0.0007017234188034,-0.0005407235653235,-0.0005612142857142,-0.0005702356532356
-0.0005251573382173,-0.0005461233211233,-0.0004774857142857,0.0005333567277167,-2.4310549450549165e-05,-0.0005106396092796,-0.0004816737484737,-0.0007542555555555,-0.0007017234188034,-0.0005407235653235,-0.0005612142857142,-0.0005702356532356
-0.0005372998534798,-0.0005461233211233,-0.0004622793650793,0.0005394173382173,-3.6468595848595565e-05,-0.0005045605372405,-0.0004755765567765,-0.0007420904761904,-0.0006956741391941,-0.0005316605616605,-0.0005521622710622,-0.0005611836385836
-0.0005372998534798,-0.0005521912087912,-0.0004683619047619,0.0005424476434676,-3.342908424908396e-05,-0.0005106396092796,-0.0004694793650793,-0.0007390492063492,-0.0006926494993894,-0.0005225975579975,-0.0005461275946275,-0.0005521316239316
-0.0005312285958485,-0.000561293040293,-0.0004835682539682,0.0005454779487179,-2.4310549450549165e-05,-0.0005227977533577,-0.0004694793650793,-0.0007390492063492,-0.0006926494993894,-0.0005225975579975,-0.0005461275946275,-0.0005521316239316
-0.0005312285958485,-0.0005643269841269,-0.0004805269841269,0.0005454779487179,-2.4310549450549165e-05,-0.0005227977533577,-0.0004664307692307,-0.0007420904761904,-0.0006956741391941,-0.0005256185592185,-0.0005461275946275,-0.0005491142857142
-0.0005342642246642,-0.0005521912087912,-0.0004714031746031,0.0005424476434676,-3.0389572649572364e-05,-0.0005106396092796,-0.0004694793650793,-0.000748173015873,-0.0007017234188034,-0.0005316605616605,-0.0005491449328449,-0.0005551489621489
-0.0005251573382173,-0.0005461233211233,-0.0004744444444444,0.0005333567277167,-2.4310549450549165e-05,-0.0005106396092796,-0.0004755765567765,-0.0007542555555555,-0.0007017234188034,-0.0005316605616605,-0.0005521622710622,-0.0005551489621489
-0.000519086080586,-0.0005491572649572,-0.0004835682539682,0.0005333567277167,-1.823152625152597e-05,-0.0005167186813186,-0.0004755765567765,-0.000748173015873,-0.0006986987789987,-0.0005286395604395,-0.0005491449328449,-0.0005551489621489
-0.0005160504517704,-0.0005703948717948,-0.0005078984126984,0.0005424476434676,-3.03396825396797e-06,-0.0005379954334554,-0.0004725279609279,-0.0007451317460317,-0.0006956741391941,-0.0005286395604395,-0.0005521622710622,-0.0005581663003663
-0.000519086080586,-0.0005734288156288,-0.0005078984126984,0.0005454779487179,-6.07347985347957e-06,-0.0005410349694749,-0.0004694793650793,-0.000748173015873,-0.0007017234188034,-0.0005346815628815,-0.0005551796092796,-0.0005611836385836
-0.0005221217094017,-0.0005643269841269,-0.000492692063492,0.0005424476434676,-1.5192014652014368e-05,-0.0005288768253968,-0.0004694793650793,-0.000748173015873,-0.0007017234188034,-0.0005346815628815,-0.0005551796092796,-0.0005611836385836
-0.0005251573382173,-0.000558259096459,-0.0004866095238095,0.0005394173382173,-1.823152625152597e-05,-0.0005227977533577,-0.0004664307692307,-0.000748173015873,-0.000704748058608,-0.0005377025641025,-0.0005551796092796,-0.0005611836385836
-0.0005251573382173,-0.000558259096459,-0.0004866095238095,0.0005394173382173,-1.823152625152597e-05,-0.0005227977533577,-0.0004664307692307,-0.0007512142857142,-0.0007077726984126,-0.0005407235653235,-0.0005612142857142,-0.0005642009768009
-0.0005281929670329,-0.000561293040293,-0.0004866095238095,0.0005424476434676,-2.1271037851037568e-05,-0.0005227977533577,-0.0004664307692307,-0.0007542555555555,-0.000704748058608,-0.0005346815628815,-0.0005581969474969,-0.0005611836385836
-0.0005281929670329,-0.000561293040293,-0.0004866095238095,0.0005424476434676,-2.1271037851037568e-05,-0.0005227977533577,-0.0004633821733821,-0.0007512142857142,-0.0007017234188034,-0.0005286395604395,-0.0005551796092796,-0.0005581663003663
-0.0005312285958485,-0.0005643269841269,-0.0004835682539682,0.0005454779487179,-2.4310549450549165e-05,-0.0005227977533577,-0.0004664307692307,-0.0007542555555555,-0.0007077726984126,-0.0005346815628815,-0.0005581969474969,-0.0005611836385836
-0.0005342642246642,-0.0005491572649572,-0.0004683619047619,0.0005394173382173,-3.342908424908396e-05,-0.00050760007326,-0.0004694793650793,-0.000760338095238,-0.0007138219780219,-0.0005407235653235,-0.0005581969474969,-0.0005581663003663
-0.0005312285958485,-0.0005521912087912,-0.0004714031746031,0.0005394173382173,-3.0389572649572364e-05,-0.0005106396092796,-0.0004694793650793,-0.0007572968253968,-0.000704748058608,-0.0005346815628815,-0.0005551796092796,-0.0005581663003663
-0.0005281929670329,-0.0005643269841269,-0.0004896507936507,0.0005454779487179,-1.823152625152597e-05,-0.0005258372893772,-0.0004664307692307,-0.0007512142857142,-0.0007017234188034,-0.0005316605616605,-0.0005551796092796,-0.0005611836385836
-0.0005312285958485,-0.0005673609279609,-0.0004866095238095,0.0005485082539682,-2.1271037851037568e-05,-0.0005258372893772,-0.0004694793650793,-0.0007512142857142,-0.000704748058608,-0.0005377025641025,-0.0005581969474969,-0.0005642009768009
-0.0005312285958485,-0.000561293040293,-0.0004835682539682,0.0005454779487179,-2.4310549450549165e-05,-0.0005227977533577,-0.0004725279609279,-0.0007542555555555,-0.0007077726984126,-0.0005407235653235,-0.0005612142857142,-0.0005672183150183
-0.0005281929670329,-0.0005552251526251,-0.0004835682539682,0.0005394173382173,-2.1271037851037568e-05,-0.0005197582173382,-0.0004664307692307,-0.000748173015873,-0.000704748058608,-0.0005377025641025,-0.0005581969474969,-0.0005672183150183
-0.0005281929670329,-0.000561293040293,-0.0004866095238095,0.0005424476434676,-2.1271037851037568e-05,-0.0005227977533577,-0.0004542363858363,-0.0007451317460317,-0.0006986987789987,-0.0005346815628815,-0.0005581969474969,-0.0005672183150183
-0.000519086080586,-0.000558259096459,-0.0004896507936507,0.000536387032967,-1.5192014652014368e-05,-0.0005227977533577,-0.0004481391941391,-0.0007451317460317,-0.0006956741391941,-0.0005316605616605,-0.0005551796092796,-0.0005611836385836
-0.0005069435653235,-0.0005491572649572,-0.0004957333333333,0.0005272961172161,-6.07347985347957e-06,-0.0005227977533577,-0.0004450905982905,-0.0007451317460317,-0.0006956741391941,-0.0005286395604395,-0.0005551796092796,-0.0005581663003663
-0.0005069435653235,-0.0005430893772893,-0.0004866095238095,0.0005242658119658,-9.11299145299117e-06,-0.0005136791452991,-0.0004389934065934,-0.0007420904761904,-0.0006896248595848,-0.0005225975579975,-0.0005461275946275,-0.0005491142857142
-0.0005039079365079,-0.0005309536019536,-0.0004805269841269,0.0005151748962148,-1.2152503052502767e-05,-0.0005045605372405,-0.0004389934065934,-0.0007299253968253,-0.0006805509401709,-0.0005135345543345,-0.0005370755799755,-0.0005400622710622
-0.0004978366788766,-0.0005127499389499,-0.0004653206349206,0.0005030536752136,-1.5192014652014368e-05,-0.0004893628571428,-0.0004298476190476,-0.000714719047619,-0.0006654277411477,-0.0004984295482295,-0.0005250062271062,-0.0005279929181929
-0.0005008723076923,-0.0004915123321123,-0.0004440317460317,0.0004939627594627,-2.735006105006077e-05,-0.0004680861050061,-0.0004146046398046,-0.0007025539682539,-0.0006533291819291,-0.0004863455433455,-0.0005099195360195,-0.0005189409035409
-0.000494801050061,-0.0004733086691086,-0.0004318666666666,0.0004818415384615,-3.0389572649572364e-05,-0.0004528884249084,-0.000411556043956,-0.0006934301587301,-0.0006472799023199,-0.0004803035409035,-0.0005069021978021,-0.0005189409035409
-0.0004796229059829,-0.000455105006105,-0.0004257841269841,0.00046669001221,-2.735006105006077e-05,-0.0004407302808302,-0.0004237504273504,-0.0006964714285714,-0.0006442552625152,-0.0004833245421245,-0.0005069021978021,-0.0005189409035409
-0.0004765872771672,-0.0004429692307692,-0.0004166603174603,0.000457599096459,-3.0389572649572364e-05,-0.0004285721367521,-0.0004298476190476,-0.0006873476190476,-0.0006442552625152,-0.0004803035409035,-0.0005069021978021,-0.0005189409035409
-0.0004796229059829,-0.0004338673992673,-0.0004044952380952,0.0004545687912087,-3.6468595848595565e-05,-0.0004194535286935,-0.0004481391941391,-0.0006873476190476,-0.0006442552625152,-0.0004803035409035,-0.0005069021978021,-0.0005159235653235
-0.000470516019536,-0.000452071062271,-0.0004318666666666,0.0004606294017094,-1.823152625152597e-05,-0.0004407302808302,-0.0004816737484737,-0.0007116777777777,-0.0006654277411477,-0.0004954085470085,-0.0005189715506715,-0.0005310102564102
-0.000470516019536,-0.0004793765567765,-0.000459238095238,0.0004727506227106,-6.07347985347957e-06,-0.0004680861050061,-0.0004969167277167,-0.0007299253968253,-0.0006775263003663,-0.0005014505494505,-0.0005250062271062,-0.0005370449328449
-0.0004917654212454,-0.0004975802197802,-0.0004622793650793,0.0004939627594627,-1.5192014652014368e-05,-0.0004802442490842,-0.0004847223443223,-0.0007268841269841,-0.0006684523809523,-0.0004893665445665,-0.0005159542124542,-0.0005249755799755
-0.0005008723076923,-0.0005248857142857,-0.0004774857142857,0.0005121445909645,-1.2152503052502767e-05,-0.000501521001221,-0.0004786251526251,-0.0007360079365079,-0.0006805509401709,-0.0004954085470085,-0.0005189715506715,-0.0005279929181929
-0.0004917654212454,-0.0005400554334554,-0.0005018158730158,0.0005151748962148,3.045054945055228e-06,-0.0005197582173382,-0.0004877709401709,-0.0007451317460317,-0.0006986987789987,-0.0005105135531135,-0.0005310409035409,-0.0005400622710622
-0.0004826585347985,-0.0005370214896214,-0.0005048571428571,0.0005091142857142,9.124078144078428e-06,-0.0005197582173382,-0.0004908195360195,-0.0007451317460317,-0.0007017234188034,-0.0005135345543345,-0.0005310409035409,-0.0005370449328449
-0.0004856941636141,-0.0005248857142857,-0.0004896507936507,0.0005030536752136,5.543345543628675e-09,-0.00050760007326,-0.0004908195360195,-0.0007420904761904,-0.0006956741391941,-0.0005044715506715,-0.0005250062271062,-0.0005249755799755
-0.0004887297924297,-0.0005339875457875,-0.0004957333333333,0.0005091142857142,3.045054945055228e-06,-0.0005136791452991,-0.0004877709401709,-0.0007451317460317,-0.0007077726984126,-0.0005165555555555,-0.0005340582417582,-0.0005340275946275
-0.000494801050061,-0.000558259096459,-0.0005109396825396,0.0005242658119658,6.084566544566828e-06,-0.0005349558974358,-0.0004877709401709,-0.0007542555555555,-0.0007259205372405,-0.0005377025641025,-0.0005521622710622,-0.0005521316239316
-0.0005008723076923,-0.0005673609279609,-0.0005139809523809,0.0005333567277167,6.084566544566828e-06,-0.0005410349694749,-0.0004908195360195,-0.0007664206349206,-0.000738019096459,-0.0005497865689865,-0.0005642316239316,-0.0005642009768009
-0.0005099791941391,-0.0005643269841269,-0.0005078984126984,0.000536387032967,5.543345543628675e-09,-0.0005349558974358,-0.0004908195360195,-0.0007725031746031,-0.0007410437362637,-0.0005528075702075,-0.0005702663003663,-0.0005732529914529
-0.0005251573382173,-0.0005734288156288,-0.0005018158730158,0.0005485082539682,-1.2152503052502767e-05,-0.0005379954334554,-0.0004786251526251,-0.0007755444444444,-0.000738019096459,-0.0005497865689865,-0.0005732836385836,-0.0005732529914529
-0.0005464067399267,-0.0005885985347985,-0.0004896507936507,0.00056669008547,-2.735006105006077e-05,-0.0005379954334554,-0.0004664307692307,-0.0007755444444444,-0.0007349944566544,-0.0005467655677655,-0.0005672489621489,-0.0005702356532356
-0.0005585492551892,-0.0005916324786324,-0.0004805269841269,0.0005727506959706,-3.950810744810717e-05,-0.0005349558974358,-0.0004633821733821,-0.0007785857142857,-0.0007410437362637,-0.0005528075702075,-0.0005702663003663,-0.0005702356532356
-0.0005494423687423,-0.0006007343101343,-0.0005018158730158,0.0005727506959706,-2.4310549450549165e-05,-0.0005501535775335,-0.0004694793650793,-0.0007846682539682,-0.0007501176556776,-0.0005618705738705,-0.0005763009768009,-0.0005762703296703
-0.0005433711111111,-0.00061287008547,-0.0005139809523809,0.000575781001221,-1.5192014652014368e-05,-0.0005623117216117,-0.0004694793650793,-0.0007877095238095,-0.0007561669352869,-0.0005679125763125,-0.0005793183150183,-0.0005792876678876
-0.0005524779975579,-0.0006189379731379,-0.0005139809523809,0.0005848719169719,-1.823152625152597e-05,-0.0005653512576312,-0.0004633821733821,-0.0007877095238095,-0.0007531422954822,-0.0005679125763125,-0.0005853529914529,-0.0005792876678876
-0.0005524779975579,-0.00061287008547,-0.0005109396825396,0.0005818416117216,-2.1271037851037568e-05,-0.0005623117216117,-0.0004633821733821,-0.0007877095238095,-0.0007501176556776,-0.0005679125763125,-0.0005823356532356,-0.000582305006105
-0.0005494423687423,-0.0006098361416361,-0.0005109396825396,0.0005788113064713,-1.823152625152597e-05,-0.0005592721855921,-0.0004633821733821,-0.0007816269841269,-0.0007501176556776,-0.0005679125763125,-0.0005793183150183,-0.000582305006105
-0.0005464067399267,-0.0006068021978021,-0.0005048571428571,0.000575781001221,-2.1271037851037568e-05,-0.0005562326495726,-0.0004694793650793,-0.0007816269841269,-0.0007561669352869,-0.0005679125763125,-0.0005793183150183,-0.0005853223443223
-0.0005524779975579,-0.0005916324786324,-0.000492692063492,0.0005697203907203,-3.0389572649572364e-05,-0.0005410349694749,-0.0004694793650793,-0.0007816269841269,-0.0007531422954822,-0.0005648915750915,-0.0005763009768009,-0.0005792876678876
-0.0005585492551892,-0.0005977003663003,-0.0004896507936507,0.000575781001221,-3.342908424908396e-05,-0.0005440745054945,-0.0004633821733821,-0.0007755444444444,-0.0007440683760683,-0.0005618705738705,-0.0005732836385836,-0.0005762703296703
-0.0005524779975579,-0.0006098361416361,-0.0005078984126984,0.0005788113064713,-2.1271037851037568e-05,-0.0005592721855921,-0.0004542363858363,-0.0007694619047619,-0.000738019096459,-0.0005558285714285,-0.0005763009768009,-0.0005762703296703
-0.0005464067399267,-0.0006037682539682,-0.0005048571428571,0.0005727506959706,-2.1271037851037568e-05,-0.0005531931135531,-0.0004542363858363,-0.0007664206349206,-0.0007319698168498,-0.0005497865689865,-0.0005702663003663,-0.0005702356532356
-0.0005494423687423,-0.0005885985347985,-0.0004896507936507,0.00056669008547,-3.0389572649572364e-05,-0.0005379954334554,-0.0004603335775335,-0.0007694619047619,-0.0007349944566544,-0.0005497865689865,-0.0005672489621489,-0.0005672183150183
-0.0005494423687423,-0.0005825306471306,-0.0004866095238095,0.0005636597802197,-3.0389572649572364e-05,-0.0005349558974358,-0.0004664307692307,-0.0007785857142857,-0.000738019096459,-0.0005528075702075,-0.0005672489621489,-0.0005672183150183
-0.0005555136263736,-0.0005885985347985,-0.0004835682539682,0.0005697203907203,-3.6468595848595565e-05,-0.0005349558974358,-0.0004603335775335,-0.0007694619047619,-0.0007228958974358,-0.0005407235653235,-0.0005672489621489,-0.0005732529914529
-0.0005555136263736,-0.0005794967032967,-0.0004774857142857,0.00056669008547,-3.950810744810717e-05,-0.0005288768253968,-0.0004481391941391,-0.0007329666666666,-0.0006745016605616,-0.0005225975579975,-0.0005702663003663,-0.0005883396825396
-0.0005494423687423,-0.0005097159951159,-0.0004105777777777,0.0005272961172161,-6.990322344322315e-05,-0.0004589674969474,-0.0004511877899877,-0.0006843063492063,-0.0005928363858363,-0.0004772825396825,-0.0005461275946275,-0.0005762703296703
-0.0005160504517704,-0.0003640866910866,-0.000301092063492,0.0004394172649572,-0.0001063773626373,-0.0003313069841269,-0.0004755765567765,-0.0005809031746031,-0.0004688261538461,-0.0003624844932844,-0.0004586247863247,-0.0005219582417582
-0.0004098034432234,-0.0001668803418803,-0.0002098539682539,0.000287902002442,-0.0001002983394383,-0.0001884487912087,-0.000524354090354,-0.0004349222222222,-0.0002812984859584,-0.0001570564102564,-0.0003047405372405,-0.000422386080586
-0.0002549863736263,0.0001213443223443,-7.907936507936497e-05,6.66897191697192e-05,-8.814029304029276e-05,2.12791941391941e-05,-0.0006554437118437,-0.0004501285714285,-9.679545787545796e-05,0.0001087916971916,-6.335347985348e-05,-0.0002322937728937
-9.106241758241784e-05,0.0005005873015873,0.0001338095238095,-0.0002030074481074,-0.0001124563858363,0.0003161141880341,-0.0009084771672771,-0.0007329666666666,3.023941391941384e-05,0.0004169338217338,0.0002655363858363,6.642271062271e-05
6.375465201465174e-05,0.0008221853479853,0.000298038095238,-0.0004424015628815,-0.0001154958974358,0.000559277069597,-0.0012407741147741,-0.0011283317460317,2.1165494505494422e-05,0.0006797609279609,0.0005853742368742,0.0003832432234432
0.0001760729181929,0.0010345614163614,0.0003984,-0.0006030077411477,-0.0001094168742368,0.0007173329426129,-0.0015639252747252,-0.001481119047619,-9.982009768009776e-05,0.0008096639804639,0.0008026225885225,0.0006457516483516
0.0001882154334554,0.0008767963369963,0.0002311301587301,-0.0005302804151404,-2.1271037851037568e-05,0.0005531979975579,-0.0016858691086691,-0.0016696777777777,-0.0003811115995115,0.0005800678876678,0.000690981074481,0.000657821001221
6.0777045177042414e-06,0.0002700075702075,-0.0001916063492063,-0.0001363407326007,9.72699145299148e-05,3.9516410256410216e-05,-0.0015242935286935,-0.0017943698412698,-0.0008590046886446,-1.8090354090354607e-05,0.0002263109890109,0.0003711738705738
-0.0002792714041514,-0.0001335069597069,-0.0003102158730158,0.0002060837606837,1.5203101343101623e-05,-0.0002218836874236,-0.0013200376068376,-0.0020133412698412,-0.0012703557020757,-0.0004923875457875,-0.0001206829059829,0.0001509081807081
-0.0004735516483516,-0.0002943059829059,-0.0002737206349206,0.0003818414652014,-0.0001002983394383,-0.0002826744078144,-0.001158462026862,-0.0020376714285714,-0.001418563052503,-0.0007098996336996,-0.0003077578754578,3.0586080586074578e-06
-0.0005524779975579,-0.0004581389499389,-0.0003588761904761,0.0005030536752136,-9.725882783882755e-05,-0.0004072953846153,-0.0010243238095238,-0.0018065349206349,-0.0013610948962148,-0.0007672986568986,-0.0004405207570207,-0.0001659123321123
-0.0005797986568986,-0.0005430893772893,-0.0004166603174603,0.0005606294749694,-8.206126984126955e-05,-0.0004802442490842,-0.0009176229548229,-0.0015510682539682,-0.0012249861050061,-0.0007401096459096,-0.0005038848595848,-0.0002956578754578
-0.0005797986568986,-0.0005643269841269,-0.0004379492063492,0.0005697203907203,-6.990322344322315e-05,-0.000501521001221,-0.0008017763125763,-0.001322973015873,-0.0010919019536019,-0.0006857316239316,-0.0005340582417582,-0.000386178021978
-0.0005646205128205,-0.0005734288156288,-0.0004653206349206,0.00056669008547,-4.862664224664196e-05,-0.0005197582173382,-0.0006584923076923,-0.0010887952380952,-0.0009618424420024,-0.0006313536019536,-0.0005461275946275,-0.0004525594627594
-0.0005433711111111,-0.000561293040293,-0.0004714031746031,0.0005515385592185,-3.6468595848595565e-05,-0.0005167186813186,-0.0005274026862026,-0.0008850301587301,-0.0008408568498168,-0.0005709335775335,-0.0005400929181929,-0.0004857501831501
-0.0005281929670329,-0.0005339875457875,-0.000459238095238,0.0005303264224664,-3.342908424908396e-05,-0.0004954419291819,-0.0004542363858363,-0.000760338095238,-0.0007561669352869,-0.0005316605616605,-0.0005250062271062,-0.0004978195360195
-0.000519086080586,-0.0005127499389499,-0.000447073015873,0.0005151748962148,-3.6468595848595565e-05,-0.0004802442490842,-0.0004298476190476,-0.0007177603174603,-0.0007198712576312,-0.0005195765567765,-0.0005250062271062,-0.0005098888888888
-0.0005221217094017,-0.0005157838827838,-0.000447073015873,0.0005182052014652,-3.6468595848595565e-05,-0.0004802442490842,-0.0004176532356532,-0.0007025539682539,-0.0007107973382173,-0.0005225975579975,-0.0005340582417582,-0.0005249755799755
-0.0005372998534798,-0.0005309536019536,-0.0004409904761904,0.0005333567277167,-4.862664224664196e-05,-0.0004863233211233,-0.0003993616605616,-0.0006843063492063,-0.000704748058608,-0.0005256185592185,-0.0005431102564102,-0.0005340275946275
-0.0005342642246642,-0.0005370214896214,-0.0004531555555555,0.0005333567277167,-3.950810744810717e-05,-0.0004954419291819,-0.000396313064713,-0.0006660587301587,-0.0007017234188034,-0.0005256185592185,-0.0005491449328449,-0.0005430796092796
-0.0005251573382173,-0.0005400554334554,-0.0004653206349206,0.0005303264224664,-3.0389572649572364e-05,-0.000501521001221,-0.000396313064713,-0.0006569349206349,-0.0006986987789987,-0.0005286395604395,-0.0005521622710622,-0.0005491142857142
-0.0005221217094017,-0.0005430893772893,-0.0004714031746031,0.0005303264224664,-2.4310549450549165e-05,-0.00050760007326,-0.0003871672771672,-0.0006447698412698,-0.0006896248595848,-0.0005225975579975,-0.0005551796092796,-0.0005551489621489
-0.0005251573382173,-0.0005521912087912,-0.0004744444444444,0.000536387032967,-2.4310549450549165e-05,-0.0005136791452991,-0.0003780214896214,-0.0006326047619047,-0.0006835755799755,-0.0005165555555555,-0.0005521622710622,-0.0005581663003663
-0.0005281929670329,-0.0005430893772893,-0.0004653206349206,0.0005333567277167,-3.0389572649572364e-05,-0.0005045605372405,-0.0003749728937728,-0.0006265222222222,-0.0006745016605616,-0.0005105135531135,-0.0005461275946275,-0.0005521316239316
-0.0005342642246642,-0.0005430893772893,-0.000459238095238,0.000536387032967,-3.6468595848595565e-05,-0.000501521001221,-0.0003719242979242,-0.0006173984126984,-0.0006684523809523,-0.0005044715506715,-0.0005431102564102,-0.0005491142857142
-0.0005372998534798,-0.0005430893772893,-0.0004561968253968,0.0005394173382173,-3.950810744810717e-05,-0.0004984814652014,-0.0003719242979242,-0.0006113158730158,-0.0006624031013431,-0.0005074925518925,-0.0005431102564102,-0.0005491142857142
-0.0005312285958485,-0.0005430893772893,-0.0004622793650793,0.000536387032967,-3.342908424908396e-05,-0.000501521001221,-0.0003719242979242,-0.0006052333333333,-0.0006624031013431,-0.0005105135531135,-0.0005461275946275,-0.0005521316239316
-0.0005312285958485,-0.0005461233211233,-0.0004683619047619,0.000536387032967,-3.0389572649572364e-05,-0.00050760007326,-0.0003658271062271,-0.0005961095238095,-0.0006563538217338,-0.0005074925518925,-0.0005491449328449,-0.0005551489621489
-0.0005372998534798,-0.0005430893772893,-0.000459238095238,0.0005394173382173,-3.950810744810717e-05,-0.000501521001221,-0.0003658271062271,-0.0005991507936507,-0.0006593784615384,-0.0005105135531135,-0.0005521622710622,-0.0005551489621489
-0.0005312285958485,-0.0005370214896214,-0.0004561968253968,0.0005333567277167,-3.6468595848595565e-05,-0.0004954419291819,-0.0003688757020757,-0.0005991507936507,-0.0006624031013431,-0.0005135345543345,-0.0005521622710622,-0.0005551489621489
-0.0005221217094017,-0.0005370214896214,-0.0004653206349206,0.0005272961172161,-2.735006105006077e-05,-0.000501521001221,-0.0003688757020757,-0.0005961095238095,-0.0006563538217338,-0.0005105135531135,-0.0005521622710622,-0.0005521316239316
-0.0005251573382173,-0.0005400554334554,-0.0004622793650793,0.0005303264224664,-3.0389572649572364e-05,-0.000501521001221,-0.0003688757020757,-0.0005839444444444,-0.0006533291819291,-0.0005074925518925,-0.0005491449328449,-0.0005551489621489
-0.0005251573382173,-0.0005339875457875,-0.000459238095238,0.0005272961172161,-3.342908424908396e-05,-0.0004954419291819,-0.0003658271062271,-0.0005778619047619,-0.0006442552625152,-0.0005014505494505,-0.0005461275946275,-0.0005581663003663
-0.000519086080586,-0.0005339875457875,-0.0004683619047619,0.0005242658119658,-2.4310549450549165e-05,-0.000501521001221,-0.0003627785103785,-0.000568738095238,-0.0006382059829059,-0.0004984295482295,-0.0005431102564102,-0.0005551489621489
-0.000519086080586,-0.0005521912087912,-0.0004835682539682,0.0005333567277167,-1.823152625152597e-05,-0.0005167186813186,-0.0003566813186813,-0.0005596142857142,-0.0006351813431013,-0.0005014505494505,-0.0005461275946275,-0.0005551489621489
-0.0005251573382173,-0.0005491572649572,-0.0004774857142857,0.000536387032967,-2.4310549450549165e-05,-0.0005136791452991,-0.0003627785103785,-0.000556573015873,-0.0006382059829059,-0.0005044715506715,-0.0005491449328449,-0.0005611836385836
-0.0005251573382173,-0.0005370214896214,-0.0004653206349206,0.0005303264224664,-3.0389572649572364e-05,-0.000501521001221,-0.0003658271062271,-0.0005535317460317,-0.0006382059829059,-0.0005074925518925,-0.0005521622710622,-0.0005642009768009
-0.000519086080586,-0.0005309536019536,-0.0004622793650793,0.0005242658119658,-2.735006105006077e-05,-0.0004954419291819,-0.0003627785103785,-0.0005535317460317,-0.0006382059829059,-0.0005074925518925,-0.0005551796092796,-0.0005732529914529
-0.0005099791941391,-0.0005279196581196,-0.0004714031746031,0.0005182052014652,-1.823152625152597e-05,-0.0004984814652014,-0.0003627785103785,-0.0005474492063492,-0.0006382059829059,-0.0005074925518925,-0.0005612142857142,-0.0005732529914529
-0.0005069435653235,-0.0005339875457875,-0.0004744444444444,0.0005182052014652,-1.5192014652014368e-05,-0.0005045605372405,-0.0003658271062271,-0.0005322428571428,-0.0006321567032967,-0.0005074925518925,-0.0005612142857142,-0.0005702356532356
-0.000519086080586,-0.0005461233211233,-0.0004744444444444,0.0005303264224664,-2.1271037851037568e-05,-0.0005106396092796,-0.0003597299145299,-0.0005170365079365,-0.0006230827838827,-0.0004984295482295,-0.0005521622710622,-0.0005642009768009
-0.0005251573382173,-0.0005521912087912,-0.0004805269841269,0.000536387032967,-2.1271037851037568e-05,-0.0005167186813186,-0.0003505841269841,-0.0005048714285714,-0.0006170335042735,-0.0004954085470085,-0.0005491449328449,-0.0005581663003663
-0.000519086080586,-0.0005461233211233,-0.0004774857142857,0.0005303264224664,-2.1271037851037568e-05,-0.0005106396092796,-0.0003475355311355,-0.0005018301587301,-0.0006140088644688,-0.0004923875457875,-0.0005461275946275,-0.0005521316239316
-0.0005251573382173,-0.0005400554334554,-0.0004653206349206,0.0005303264224664,-3.0389572649572364e-05,-0.000501521001221,-0.0003444869352869,-0.0004957476190476,-0.0006079595848595,-0.0004923875457875,-0.0005431102564102,-0.0005521316239316
-0.0005160504517704,-0.0005309536019536,-0.0004683619047619,0.0005212355067155,-2.4310549450549165e-05,-0.0004984814652014,-0.0003444869352869,-0.0004835825396825,-0.0006049349450549,-0.0004863455433455,-0.0005370755799755,-0.0005460969474969
-0.0005039079365079,-0.0005309536019536,-0.0004805269841269,0.0005151748962148,-1.2152503052502767e-05,-0.0005045605372405,-0.0003475355311355,-0.0004744587301587,-0.0006049349450549,-0.0004833245421245,-0.0005370755799755,-0.0005460969474969
-0.0005039079365079,-0.0005248857142857,-0.0004744444444444,0.0005121445909645,-1.5192014652014368e-05,-0.0004984814652014,-0.0003475355311355,-0.0004683761904761,-0.0006019103052503,-0.0004893665445665,-0.0005431102564102,-0.0005551489621489
-0.0005008723076923,-0.0005157838827838,-0.0004653206349206,0.0005060839804639,-1.823152625152597e-05,-0.0004893628571428,-0.0003444869352869,-0.0004531698412698,-0.000595861025641,-0.0004863455433455,-0.0005431102564102,-0.0005551489621489
-0.0005008723076923,-0.0005157838827838,-0.0004653206349206,0.0005060839804639,-1.823152625152597e-05,-0.0004893628571428,-0.0003383897435897,-0.0004349222222222,-0.0005867871062271,-0.0004803035409035,-0.0005431102564102,-0.0005551489621489
-0.0004978366788766,-0.0005218517704517,-0.0004714031746031,0.0005091142857142,-1.2152503052502767e-05,-0.0004954419291819,-0.0003322925518925,-0.0004166746031746,-0.0005777131868131,-0.0004742615384615,-0.0005400929181929,-0.0005521316239316
-0.000494801050061,-0.0005157838827838,-0.0004683619047619,0.0005030536752136,-1.2152503052502767e-05,-0.0004924023931623,-0.0003292439560439,-0.0004014682539682,-0.0005777131868131,-0.0004712405372405,-0.0005340582417582,-0.0005521316239316
-0.0004978366788766,-0.0005036481074481,-0.000459238095238,0.0005000233699633,-1.823152625152597e-05,-0.0004802442490842,-0.0003231467643467,-0.0003862619047619,-0.0005686392673992,-0.0004742615384615,-0.0005340582417582,-0.0005491142857142
-0.0004917654212454,-0.0005036481074481,-0.0004653206349206,0.000496993064713,-1.2152503052502767e-05,-0.0004832837851037,-0.0003140009768009,-0.0003619317460317,-0.0005504914285714,-0.0004621775335775,-0.0005280235653235,-0.0005430796092796
-0.0004887297924297,-0.0005127499389499,-0.0004774857142857,0.0005000233699633,-6.07347985347957e-06,-0.0004954419291819,-0.0003018065934065,-0.0003406428571428,-0.0005323435897435,-0.0004500935286935,-0.0005250062271062,-0.0005400622710622
-0.0004887297924297,-0.0005036481074481,-0.0004714031746031,0.0004939627594627,-9.11299145299117e-06,-0.0004863233211233,-0.0002987579975579,-0.0003193539682539,-0.0005232696703296,-0.0004470725274725,-0.0005189715506715,-0.0005340275946275
-0.0004826585347985,-0.0004884783882783,-0.0004561968253968,0.0004848718437118,-1.2152503052502767e-05,-0.0004711256410256,-0.0002987579975579,-0.0003011063492063,-0.000520245030525,-0.0004440515262515,-0.0005159542124542,-0.0005310102564102
-0.0004796229059829,-0.0004702747252747,-0.0004440317460317,0.0004727506227106,-1.823152625152597e-05,-0.0004559279609279,-0.0003018065934065,-0.0002798174603174,-0.000520245030525,-0.0004440515262515,-0.0005159542124542,-0.0005310102564102
-0.0004765872771672,-0.0004611728937728,-0.0004379492063492,0.00046669001221,-1.823152625152597e-05,-0.0004498488888888,-0.0003018065934065,-0.0002585285714285,-0.0005111711111111,-0.0004440515262515,-0.0005129368742368,-0.0005279929181929
-0.0004674803907203,-0.000455105006105,-0.0004409904761904,0.0004606294017094,-1.2152503052502767e-05,-0.0004468093528693,-0.0002957094017094,-0.0002372396825396,-0.0005020971916971,-0.0004380095238095,-0.0005099195360195,-0.0005219582417582
-0.0004583735042735,-0.0004460031746031,-0.0004379492063492,0.0004515384859584,-9.11299145299117e-06,-0.0004407302808302,-0.0002926608058608,-0.0002098682539682,-0.0004899986324786,-0.0004289465201465,-0.0005008675213675,-0.0005129062271062
-0.0004462309890109,-0.0004369013431013,-0.0004409904761904,0.0004394172649572,-3.03396825396797e-06,-0.0004376907448107,-0.0002865636141636,-0.000185538095238,-0.0004809247130647,-0.0004168625152625,-0.0004887981684981,-0.0005038542124542
-0.0004280172161172,-0.0004338673992673,-0.000459238095238,0.0004303263492063,1.5203101343101623e-05,-0.0004468093528693,-0.000283515018315,-0.0001612079365079,-0.0004688261538461,-0.0004077995115995,-0.0004827634920634,-0.0005008368742368
-0.0004280172161172,-0.0004217316239316,-0.0004440317460317,0.0004242657387057,6.084566544566828e-06,-0.0004316116727716,-0.0002804664224664,-0.000139919047619,-0.0004567275946275,-0.0003987365079365,-0.0004767288156288,-0.0004948021978021
-0.0004583735042735,-0.00039746007326,-0.0003953714285714,0.000427296043956,-3.0389572649572364e-05,-0.0003951372405372,-0.0002713206349206,-0.0001155888888888,-0.0004385797557997,-0.0003806105006105,-0.0004556074481074,-0.0004766981684981
-0.0004644447619047,-0.0003671206349206,-0.0003558349206349,0.0004151748229548,-5.470566544566516e-05,-0.0003617023443223,-0.000268272039072,-9.734126984126952e-05,-0.0004295058363858,-0.0003715474969474,-0.000443538095238,-0.0004525594627594
-0.0004371241025641,-0.000345883028083,-0.0003588761904761,0.0003909323809523,-3.950810744810717e-05,-0.0003525837362637,-0.0002804664224664,-9.734126984126952e-05,-0.0004295058363858,-0.0003715474969474,-0.0004375034188034,-0.0004404901098901
-0.0004098034432234,-0.0003398151404151,-0.0003771238095238,0.0003727505494505,-1.5192014652014368e-05,-0.0003586628083028,-0.0002865636141636,-8.821746031746001e-05,-0.0004264811965811,-0.0003655054945054,-0.0004284514041514,-0.0004344554334554
-0.0004067678144078,-0.0003246454212454,-0.0003710412698412,0.0003636596336996,-1.823152625152597e-05,-0.0003465046642246,-0.000283515018315,-7.605238095238064e-05,-0.0004174072771672,-0.0003564424908424,-0.000416382051282,-0.0004193687423687
-0.0004037321855921,-0.0002973399267399,-0.0003467111111111,0.0003485081074481,-2.735006105006077e-05,-0.0003221883760683,-0.0002896122100122,-8.213492063492033e-05,-0.0004143826373626,-0.0003504004884004,-0.0004012953601953,-0.000404282051282
-0.0004006965567765,-0.0002821702075702,-0.000334546031746,0.0003394171916971,-3.342908424908396e-05,-0.0003069906959706,-0.0002957094017094,-8.517619047619017e-05,-0.0004113579975579,-0.0003383164835164,-0.000389226007326,-0.000386178021978
-0.0004037321855921,-0.0002821702075702,-0.0003284634920634,0.0003424474969474,-3.6468595848595565e-05,-0.0003039511599511,-0.0002957094017094,-9.125873015872984e-05,-0.0004053087179487,-0.0003292534798534,-0.0003771566544566,-0.0003710913308913
-0.0004067678144078,-0.0002639665445665,-0.0003071746031746,0.0003333565811965,-4.862664224664196e-05,-0.0002857139438339,-0.0003018065934065,-0.000106465079365,-0.0004083333577533,-0.0003262324786324,-0.0003650873015873,-0.0003590219780219
-0.0004037321855921,-0.0002457628815628,-0.0002919682539682,0.0003242656654456,-5.470566544566516e-05,-0.0002674767277167,-0.0003109523809523,-0.0001338365079365,-0.0004174072771672,-0.0003292534798534,-0.0003650873015873,-0.0003560046398046
-0.0004006965567765,-0.0002396949938949,-0.0002889269841269,0.000318205054945,-5.470566544566516e-05,-0.0002644371916971,-0.0003200981684981,-0.0001703317460317,-0.0004295058363858,-0.0003352954822954,-0.0003681046398046,-0.0003529873015873
-0.0004067678144078,-0.0002396949938949,-0.0002889269841269,0.0003212353601953,-5.774517704517676e-05,-0.0002644371916971,-0.0003292439560439,-0.0002068269841269,-0.0004416043956043,-0.0003383164835164,-0.0003681046398046,-0.0003499699633699
-0.0004158747008547,-0.0002427289377289,-0.0002798031746031,0.0003272959706959,-6.686371184371155e-05,-0.0002613976556776,-0.0003383897435897,-0.0002554873015873,-0.0004537029548229,-0.0003413374847374,-0.0003650873015873,-0.0003439352869352
-0.0004219459584859,-0.0002518307692307,-0.0002828444444444,0.0003363868864468,-6.990322344322315e-05,-0.0002674767277167,-0.0003505841269841,-0.0003071888888888,-0.0004718507936507,-0.0003534214896214,-0.0003681046398046,-0.0003469526251526
-0.0004340884737484,-0.0002639665445665,-0.0002858857142857,0.0003485081074481,-7.294273504273476e-05,-0.0002735557997557,-0.0003505841269841,-0.0003528079365079,-0.0004839493528693,-0.0003564424908424,-0.0003711219780219,-0.0003529873015873
-0.0004462309890109,-0.0002852041514041,-0.0002919682539682,0.0003636596336996,-7.598224664224636e-05,-0.0002887534798534,-0.0003566813186813,-0.0003984269841269,-0.0005020971916971,-0.0003655054945054,-0.0003831913308913,-0.0003650566544566
-0.0004523022466422,-0.0003034078144078,-0.000301092063492,0.0003757808547008,-7.598224664224636e-05,-0.0003009116239316,-0.0003658271062271,-0.0004410047619047,-0.0005232696703296,-0.0003775894993894,-0.0003922433455433,-0.0003741086691086
-0.0004674803907203,-0.0003307133089133,-0.0003132571428571,0.0003969929914529,-7.598224664224636e-05,-0.0003221883760683,-0.0003688757020757,-0.0004805412698412,-0.0005414175091575,-0.0003926945054945,-0.0004103473748473,-0.00039523003663
-0.0004887297924297,-0.0003671206349206,-0.0003315047619047,0.000427296043956,-7.902175824175796e-05,-0.0003495442002442,-0.0003658271062271,-0.0005200777777777,-0.0005625899877899,-0.0004108205128205,-0.0004284514041514,-0.0004163514041514
-0.0004978366788766,-0.000400494017094,-0.0003588761904761,0.0004485081807081,-6.990322344322315e-05,-0.0003799395604395,-0.0003658271062271,-0.0005535317460317,-0.0005837624664224,-0.0004319675213675,-0.0004556074481074,-0.0004435074481074
-0.0004978366788766,-0.0004308334554334,-0.0003923301587301,0.0004636597069597,-5.166615384615356e-05,-0.0004103349206349,-0.0003688757020757,-0.0005839444444444,-0.0006079595848595,-0.0004561355311355,-0.0004797461538461,-0.0004736808302808
-0.0005130148229548,-0.0004702747252747,-0.0004105777777777,0.0004909324542124,-5.166615384615356e-05,-0.0004407302808302,-0.0003688757020757,-0.0006082746031746,-0.000629132063492,-0.0004742615384615,-0.0004978501831501,-0.0004948021978021
-0.0005221217094017,-0.0004945462759462,-0.0004257841269841,0.0005060839804639,-4.862664224664196e-05,-0.0004589674969474,-0.0003719242979242,-0.0006386873015873,-0.0006503045421245,-0.0004954085470085,-0.0005189715506715,-0.0005159235653235
-0.0005251573382173,-0.0005097159951159,-0.0004349079365079,0.0005151748962148,-4.558713064713037e-05,-0.0004711256410256,-0.0003780214896214,-0.0006599761904761,-0.000671477020757,-0.0005105135531135,-0.0005340582417582,-0.0005310102564102
-0.0005372998534798,-0.0005218517704517,-0.0004379492063492,0.0005272961172161,-4.862664224664196e-05,-0.0004802442490842,-0.0003719242979242,-0.0006751825396825,-0.0006805509401709,-0.0005135345543345,-0.0005400929181929,-0.0005340275946275
-0.0005433711111111,-0.0005491572649572,-0.000459238095238,0.0005454779487179,-4.254761904761877e-05,-0.0005045605372405,-0.0003597299145299,-0.0006843063492063,-0.0006835755799755,-0.0005165555555555,-0.0005431102564102,-0.0005340275946275
-0.0005433711111111,-0.0005764627594627,-0.0004866095238095,0.0005575991697191,-2.735006105006077e-05,-0.0005319163614163,-0.0003627785103785,-0.0006934301587301,-0.0006896248595848,-0.0005256185592185,-0.0005521622710622,-0.0005430796092796
-0.0005403354822954,-0.0005794967032967,-0.000492692063492,0.0005575991697191,-2.4310549450549165e-05,-0.0005349558974358,-0.0003688757020757,-0.0007086365079365,-0.000704748058608,-0.0005437445665445,-0.0005642316239316,-0.0005551489621489
-0.0005464067399267,-0.0005794967032967,-0.0004866095238095,0.0005606294749694,-3.0389572649572364e-05,-0.0005319163614163,-0.0003749728937728,-0.0007238428571428,-0.0007228958974358,-0.0005618705738705,-0.0005823356532356,-0.0005702356532356
-0.0005524779975579,-0.0005916324786324,-0.0004896507936507,0.0005697203907203,-3.0389572649572364e-05,-0.0005410349694749,-0.0003719242979242,-0.0007299253968253,-0.0007289451770451,-0.0005648915750915,-0.0005913876678876,-0.000582305006105
-0.0005555136263736,-0.0006037682539682,-0.0004987746031746,0.0005788113064713,-2.735006105006077e-05,-0.0005501535775335,-0.0003627785103785,-0.0007238428571428,-0.0007228958974358,-0.0005618705738705,-0.0005883703296703,-0.000582305006105
-0.0005555136263736,-0.00061287008547,-0.0005078984126984,0.0005818416117216,-2.4310549450549165e-05,-0.0005592721855921,-0.0003658271062271,-0.0007208015873015,-0.0007259205372405,-0.0005648915750915,-0.0005913876678876,-0.000582305006105
-0.0005585492551892,-0.0006068021978021,-0.0005018158730158,0.0005818416117216,-2.735006105006077e-05,-0.0005531931135531,-0.0003688757020757,-0.0007238428571428,-0.0007319698168498,-0.0005679125763125,-0.0005853529914529,-0.0005792876678876
-0.0005646205128205,-0.00061287008547,-0.0004987746031746,0.0005879022222222,-3.342908424908396e-05,-0.0005562326495726,-0.0003658271062271,-0.0007208015873015,-0.0007289451770451,-0.0005679125763125,-0.0005913876678876,-0.0005792876678876
-0.0005706917704517,-0.0006280398046398,-0.0005078984126984,0.0005969931379731,-3.0389572649572364e-05,-0.0005683907936507,-0.0003627785103785,-0.0007177603174603,-0.0007319698168498,-0.0005679125763125,-0.0005974223443223,-0.0005853223443223
-0.0005615848840048,-0.0006250058608058,-0.0005139809523809,0.0005909325274725,-2.4310549450549165e-05,-0.0005683907936507,-0.0003597299145299,-0.0007238428571428,-0.0007349944566544,-0.0005709335775335,-0.0005974223443223,-0.0005883396825396
-0.0005555136263736,-0.0006250058608058,-0.0005200634920634,0.0005879022222222,-1.823152625152597e-05,-0.0005714303296703,-0.0003627785103785,-0.0007268841269841,-0.0007410437362637,-0.0005769755799755,-0.0006004396825396,-0.0005943743589743
-0.0005524779975579,-0.0006280398046398,-0.000526146031746,0.0005879022222222,-1.2152503052502767e-05,-0.0005775094017094,-0.0003597299145299,-0.0007268841269841,-0.0007440683760683,-0.0005799965811965,-0.0006064743589743,-0.0005973916971916
-0.0005585492551892,-0.0006341076923076,-0.000526146031746,0.0005939628327228,-1.5192014652014368e-05,-0.0005805489377289,-0.0003505841269841,-0.0007238428571428,-0.000738019096459,-0.0005739545787545,-0.000603457020757,-0.0005943743589743
-0.0005615848840048,-0.0006462434676434,-0.0005352698412698,0.0006030537484737,-1.2152503052502767e-05,-0.0005896675457875,-0.0003444869352869,-0.000714719047619,-0.0007319698168498,-0.0005709335775335,-0.0006004396825396,-0.000591357020757
-0.0005585492551892,-0.0006462434676434,-0.0005352698412698,0.0006000234432234,-1.2152503052502767e-05,-0.0005896675457875,-0.0003444869352869,-0.0007055952380952,-0.0007319698168498,-0.0005709335775335,-0.000603457020757,-0.0005943743589743
-0.0005585492551892,-0.0006371416361416,-0.0005231047619047,0.0005969931379731,-1.823152625152597e-05,-0.0005805489377289,-0.0003505841269841,-0.0007025539682539,-0.000738019096459,-0.0005769755799755,-0.0006094916971916,-0.000600409035409
-0.0005615848840048,-0.0006280398046398,-0.0005139809523809,0.0005939628327228,-2.4310549450549165e-05,-0.0005714303296703,-0.0003505841269841,-0.0007025539682539,-0.0007349944566544,-0.0005830175824175,-0.000612509035409,-0.0006064437118437
-0.0005555136263736,-0.0006280398046398,-0.0005200634920634,0.0005909325274725,-1.823152625152597e-05,-0.0005744698656898,-0.0003505841269841,-0.0007055952380952,-0.0007349944566544,-0.0005860385836385,-0.0006155263736263,-0.000609461050061
-0.0005585492551892,-0.0006250058608058,-0.0005170222222222,0.0005909325274725,-2.1271037851037568e-05,-0.0005714303296703,-0.0003475355311355,-0.0007025539682539,-0.0007349944566544,-0.0005830175824175,-0.000612509035409,-0.0006034263736263
-0.0005676561416361,-0.000615904029304,-0.0004987746031746,0.0005909325274725,-3.342908424908396e-05,-0.0005562326495726,-0.0003414383394383,-0.0006964714285714,-0.0007259205372405,-0.0005709335775335,-0.0006004396825396,-0.000591357020757
-0.0005646205128205,-0.00061287008547,-0.0004987746031746,0.0005879022222222,-3.342908424908396e-05,-0.0005562326495726,-0.0003414383394383,-0.0006934301587301,-0.0007228958974358,-0.0005679125763125,-0.0005974223443223,-0.0005943743589743
-0.0005615848840048,-0.0006189379731379,-0.0005048571428571,0.0005879022222222,-2.735006105006077e-05,-0.0005623117216117,-0.0003414383394383,-0.0006903888888888,-0.0007259205372405,-0.0005709335775335,-0.0006004396825396,-0.0005973916971916
-0.0005585492551892,-0.0006250058608058,-0.0005170222222222,0.0005909325274725,-2.1271037851037568e-05,-0.0005714303296703,-0.0003383897435897,-0.0006903888888888,-0.0007259205372405,-0.0005709335775335,-0.0006064743589743,-0.0006034263736263
-0.0005555136263736,-0.0006250058608058,-0.0005200634920634,0.0005879022222222,-1.823152625152597e-05,-0.0005714303296703,-0.0003353411477411,-0.0006934301587301,-0.0007259205372405,-0.0005739545787545,-0.0006094916971916,-0.0006034263736263
-0.0005585492551892,-0.00061287008547,-0.0005078984126984,0.0005848719169719,-2.4310549450549165e-05,-0.0005592721855921,-0.0003414383394383,-0.0006934301587301,-0.0007259205372405,-0.0005739545787545,-0.0006094916971916,-0.000600409035409
-0.0005464067399267,-0.00061287008547,-0.0005170222222222,0.0005788113064713,-1.5192014652014368e-05,-0.0005653512576312,-0.0003444869352869,-0.0006903888888888,-0.0007198712576312,-0.0005679125763125,-0.000603457020757,-0.0005943743589743
-0.0005494423687423,-0.000615904029304,-0.0005139809523809,0.0005818416117216,-1.823152625152597e-05,-0.0005653512576312,-0.0003414383394383,-0.000681265079365,-0.0007138219780219,-0.0005618705738705,-0.0005974223443223,-0.000591357020757
-0.0005585492551892,-0.0006189379731379,-0.0005078984126984,0.0005879022222222,-2.4310549450549165e-05,-0.0005623117216117,-0.0003353411477411,-0.0006782238095238,-0.0007107973382173,-0.0005588495726495,-0.000594405006105,-0.0005883396825396
-0.0005585492551892,-0.00061287008547,-0.0005018158730158,0.0005848719169719,-2.735006105006077e-05,-0.0005562326495726,-0.0003383897435897,-0.000681265079365,-0.0007138219780219,-0.0005618705738705,-0.0005974223443223,-0.0005883396825396
-0.0005524779975579,-0.0006037682539682,-0.0004987746031746,0.000575781001221,-2.735006105006077e-05,-0.0005501535775335,-0.0003475355311355,-0.0006843063492063,-0.0007168466178266,-0.0005648915750915,-0.0005974223443223,-0.0005883396825396
-0.0005403354822954,-0.0005977003663003,-0.0005078984126984,0.00056669008547,-1.5192014652014368e-05,-0.0005531931135531,-0.0003536327228327,-0.0006782238095238,-0.0007138219780219,-0.0005618705738705,-0.0005974223443223,-0.0005853223443223
-0.0005372998534798,-0.0006037682539682,-0.0005109396825396,0.0005697203907203,-1.2152503052502767e-05,-0.0005562326495726,-0.0003505841269841,-0.0006782238095238,-0.0007077726984126,-0.0005558285714285,-0.0005913876678876,-0.000582305006105
-0.0005372998534798,-0.0006068021978021,-0.0005139809523809,0.0005697203907203,-1.2152503052502767e-05,-0.0005592721855921,-0.0003505841269841,-0.0006782238095238,-0.0007077726984126,-0.0005528075702075,-0.0005883703296703,-0.000582305006105
-0.0005342642246642,-0.0005916324786324,-0.0005078984126984,0.0005606294749694,-1.2152503052502767e-05,-0.0005501535775335,-0.0003566813186813,-0.000681265079365,-0.0007138219780219,-0.0005497865689865,-0.0005853529914529,-0.0005792876678876
-0.0005372998534798,-0.0005764627594627,-0.0004896507936507,0.0005545688644688,-2.4310549450549165e-05,-0.0005319163614163,-0.0003597299145299,-0.0006843063492063,-0.0007138219780219,-0.0005497865689865,-0.0005793183150183,-0.0005762703296703
-0.0005312285958485,-0.0005673609279609,-0.0004835682539682,0.0005485082539682,-2.4310549450549165e-05,-0.0005258372893772,-0.0003627785103785,-0.0006934301587301,-0.0007198712576312,-0.0005528075702075,-0.0005853529914529,-0.0005792876678876
-0.0005251573382173,-0.0005643269841269,-0.0004896507936507,0.0005424476434676,-1.823152625152597e-05,-0.0005258372893772,-0.0003658271062271,-0.0006964714285714,-0.0007198712576312,-0.0005528075702075,-0.0005883703296703,-0.0005853223443223
-0.0005251573382173,-0.0005764627594627,-0.0005048571428571,0.0005485082539682,-9.11299145299117e-06,-0.0005410349694749,-0.0003627785103785,-0.0006873476190476,-0.0007107973382173,-0.0005407235653235,-0.0005793183150183,-0.0005762703296703
-0.0005372998534798,-0.0005885985347985,-0.0005048571428571,0.0005606294749694,-1.5192014652014368e-05,-0.000547114041514,-0.0003566813186813,-0.000681265079365,-0.0007077726984126,-0.0005316605616605,-0.0005702663003663,-0.0005642009768009
-0.0005464067399267,-0.0005825306471306,-0.0004866095238095,0.0005636597802197,-3.0389572649572364e-05,-0.0005349558974358,-0.0003597299145299,-0.0006843063492063,-0.0007077726984126,-0.0005286395604395,-0.0005642316239316,-0.0005581663003663
-0.0005433711111111,-0.0005643269841269,-0.0004744444444444,0.0005515385592185,-3.342908424908396e-05,-0.0005197582173382,-0.0003658271062271,-0.0006873476190476,-0.0007107973382173,-0.0005316605616605,-0.0005581969474969,-0.0005521316239316
