I,II,III,aVR,aVL,aVF,v1,v2,v3,v4,v5,v6
-0.0005706917704517,-0.0005036481074481,-0.0003832063492063,0.000536387032967,-9.421931623931596e-05,-0.0004437698168498,-0.0004786251526251,-0.0005748206349206,-0.0006442552625152,-0.0004833245421245,-0.0005099195360195,-0.0005219582417582
-0.0005797986568986,-0.0005036481074481,-0.0003740825396825,0.0005394173382173,-0.0001033378510378,-0.0004376907448107,-0.0004664307692307,-0.0005596142857142,-0.0006351813431013,-0.0004772825396825,-0.0005069021978021,-0.0005189409035409
-0.0005828342857142,-0.0005036481074481,-0.0003710412698412,0.0005424476434676,-0.0001063773626373,-0.0004376907448107,-0.0004603335775335,-0.0005504904761904,-0.0006261074236874,-0.0004712405372405,-0.0005038848595848,-0.0005159235653235
-0.0005828342857142,-0.0005036481074481,-0.0003740825396825,0.0005424476434676,-0.0001033378510378,-0.0004376907448107,-0.0004603335775335,-0.0005413666666666,-0.0006170335042735,-0.0004651985347985,-0.0004978501831501,-0.0005129062271062
-0.0005858699145299,-0.000506682051282,-0.0003740825396825,0.0005454779487179,-0.0001063773626373,-0.0004407302808302,-0.0004572849816849,-0.0005352841269841,-0.0006140088644688,-0.0004621775335775,-0.0004948328449328,-0.0005129062271062
-0.0005919411721611,-0.0005097159951159,-0.0003740825396825,0.0005485082539682,-0.0001094168742368,-0.0004407302808302,-0.0004542363858363,-0.0005322428571428,-0.0006109842246642,-0.0004621775335775,-0.0004948328449328,-0.0005129062271062
-0.0005858699145299,-0.0005036481074481,-0.0003740825396825,0.0005424476434676,-0.0001063773626373,-0.0004376907448107,-0.0004572849816849,-0.0005322428571428,-0.0006079595848595,-0.0004621775335775,-0.0004978501831501,-0.0005129062271062
-0.0005646205128205,-0.0004975802197802,-0.0003862476190476,0.0005303264224664,-8.814029304029276e-05,-0.0004407302808302,-0.0004633821733821,-0.0005322428571428,-0.0006109842246642,-0.0004651985347985,-0.0005008675213675,-0.0005159235653235
-0.0005585492551892,-0.0004945462759462,-0.0003892888888888,0.0005242658119658,-8.510078144078116e-05,-0.0004407302808302,-0.0004694793650793,-0.000523119047619,-0.0006140088644688,-0.0004682195360195,-0.0005038848595848,-0.0005159235653235
-0.0005615848840048,-0.0004945462759462,-0.0003862476190476,0.0005272961172161,-8.814029304029276e-05,-0.0004407302808302,-0.0004694793650793,-0.0005139952380952,-0.0006140088644688,-0.0004682195360195,-0.0005069021978021,-0.0005189409035409
-0.0005615848840048,-0.0004915123321123,-0.0003862476190476,0.0005242658119658,-8.814029304029276e-05,-0.0004376907448107,-0.0004694793650793,-0.0005109539682539,-0.0006109842246642,-0.0004682195360195,-0.0005069021978021,-0.0005249755799755
-0.0005585492551892,-0.0004915123321123,-0.0003862476190476,0.0005242658119658,-8.510078144078116e-05,-0.0004376907448107,-0.0004664307692307,-0.0005079126984126,-0.0006109842246642,-0.0004682195360195,-0.0005099195360195,-0.0005279929181929
-0.0005585492551892,-0.0004884783882783,-0.000380165079365,0.0005212355067155,-8.814029304029276e-05,-0.0004346512087912,-0.0004633821733821,-0.0005018301587301,-0.0006049349450549,-0.0004651985347985,-0.0005038848595848,-0.0005219582417582
-0.0005646205128205,-0.0004824105006105,-0.0003710412698412,0.0005212355067155,-9.725882783882755e-05,-0.0004255326007326,-0.0004572849816849,-0.0004927063492063,-0.000595861025641,-0.0004591565323565,-0.0004978501831501,-0.0005159235653235
-0.0005585492551892,-0.0004884783882783,-0.0003862476190476,0.0005212355067155,-8.510078144078116e-05,-0.0004376907448107,-0.0004603335775335,-0.000489665079365,-0.0005988856654456,-0.0004621775335775,-0.0005008675213675,-0.0005189409035409
-0.0005555136263736,-0.0004975802197802,-0.0003953714285714,0.0005242658119658,-7.902175824175796e-05,-0.0004468093528693,-0.0004572849816849,-0.0004835825396825,-0.0005928363858363,-0.0004621775335775,-0.0005038848595848,-0.0005249755799755
-0.0005646205128205,-0.0005006141636141,-0.0003862476190476,0.0005303264224664,-8.814029304029276e-05,-0.0004437698168498,-0.0004481391941391,-0.0004714174603174,-0.0005837624664224,-0.0004561355311355,-0.0005008675213675,-0.0005219582417582
-0.0005615848840048,-0.0004945462759462,-0.0003832063492063,0.0005272961172161,-8.814029304029276e-05,-0.0004376907448107,-0.0004450905982905,-0.0004622936507936,-0.0005807378266178,-0.0004500935286935,-0.0005008675213675,-0.0005219582417582
-0.0005646205128205,-0.0004915123321123,-0.000380165079365,0.0005272961172161,-9.117980463980436e-05,-0.0004346512087912,-0.0004450905982905,-0.0004531698412698,-0.0005777131868131,-0.0004500935286935,-0.0004978501831501,-0.0005219582417582
-0.0005646205128205,-0.0004884783882783,-0.000380165079365,0.0005242658119658,-9.117980463980436e-05,-0.0004346512087912,-0.0004450905982905,-0.000444046031746,-0.0005746885470085,-0.0004500935286935,-0.0005008675213675,-0.0005249755799755
-0.0005524779975579,-0.0004945462759462,-0.0003923301587301,0.0005212355067155,-7.902175824175796e-05,-0.0004437698168498,-0.0004481391941391,-0.0004379634920634,-0.0005746885470085,-0.0004531145299145,-0.0005069021978021,-0.0005310102564102
-0.0005494423687423,-0.0004945462759462,-0.0003953714285714,0.0005212355067155,-7.598224664224636e-05,-0.0004437698168498,-0.000442042002442,-0.0004288396825396,-0.0005686392673992,-0.0004531145299145,-0.0005069021978021,-0.0005279929181929
-0.0005555136263736,-0.0004915123321123,-0.0003892888888888,0.0005212355067155,-8.206126984126955e-05,-0.0004407302808302,-0.0004359448107448,-0.0004166746031746,-0.0005595653479853,-0.0004500935286935,-0.0005038848595848,-0.0005249755799755
-0.0005494423687423,-0.0004915123321123,-0.0003953714285714,0.0005182052014652,-7.598224664224636e-05,-0.0004437698168498,-0.0004359448107448,-0.0003984269841269,-0.0005595653479853,-0.0004500935286935,-0.0005038848595848,-0.0005279929181929
-0.0005372998534798,-0.0004915123321123,-0.0004044952380952,0.0005121445909645,-6.686371184371155e-05,-0.0004468093528693,-0.0004389934065934,-0.0003893031746031,-0.0005595653479853,-0.0004500935286935,-0.0005038848595848,-0.0005310102564102
-0.0005464067399267,-0.0004915123321123,-0.0003984126984126,0.0005182052014652,-7.294273504273476e-05,-0.0004437698168498,-0.000426799023199,-0.0003710555555555,-0.0005504914285714,-0.0004440515262515,-0.0005008675213675,-0.0005279929181929
-0.0005464067399267,-0.0004915123321123,-0.0003984126984126,0.0005182052014652,-7.294273504273476e-05,-0.0004437698168498,-0.0004237504273504,-0.0003588904761904,-0.0005474667887667,-0.0004440515262515,-0.0005038848595848,-0.0005310102564102
-0.0005372998534798,-0.0004915123321123,-0.0004044952380952,0.0005121445909645,-6.686371184371155e-05,-0.0004468093528693,-0.0004207018315018,-0.0003467253968253,-0.0005414175091575,-0.0004380095238095,-0.0005038848595848,-0.0005340275946275
-0.0005403354822954,-0.0004884783882783,-0.0003984126984126,0.0005121445909645,-6.990322344322315e-05,-0.0004437698168498,-0.0004176532356532,-0.0003284777777777,-0.0005323435897435,-0.0004349885225885,-0.0005008675213675,-0.0005310102564102
-0.0005342642246642,-0.0004824105006105,-0.0003984126984126,0.0005060839804639,-6.686371184371155e-05,-0.0004407302808302,-0.0004176532356532,-0.0003071888888888,-0.0005293189499389,-0.0004380095238095,-0.0005008675213675,-0.0005310102564102
-0.0005281929670329,-0.0004824105006105,-0.0004075365079365,0.0005030536752136,-6.078468864468836e-05,-0.0004437698168498,-0.0004176532356532,-0.0002950238095238,-0.0005262943101343,-0.0004380095238095,-0.0005038848595848,-0.0005340275946275
-0.0005221217094017,-0.0004793765567765,-0.0004105777777777,0.0005000233699633,-5.470566544566516e-05,-0.0004437698168498,-0.000411556043956,-0.0002798174603174,-0.000520245030525,-0.0004349885225885,-0.0005038848595848,-0.0005340275946275
-0.0005160504517704,-0.0004702747252747,-0.0004044952380952,0.0004909324542124,-5.470566544566516e-05,-0.0004376907448107,-0.0004085074481074,-0.0002554873015873,-0.0005081464713064,-0.0004259255189255,-0.0004948328449328,-0.0005279929181929
-0.0005221217094017,-0.0004672407814407,-0.0003953714285714,0.0004939627594627,-6.382420024419996e-05,-0.0004316116727716,-0.0004054588522588,-0.0002281158730158,-0.0004960479120879,-0.0004138415140415,-0.0004827634920634,-0.0005159235653235
-0.0005160504517704,-0.0004642068376068,-0.0004014539682539,0.0004879021489621,-5.774517704517676e-05,-0.0004316116727716,-0.0003993616605616,-0.0002037857142857,-0.0004869739926739,-0.0004077995115995,-0.0004797461538461,-0.0005098888888888
-0.0005160504517704,-0.0004672407814407,-0.0003984126984126,0.0004909324542124,-5.774517704517676e-05,-0.0004316116727716,-0.0003902158730158,-0.0001794555555555,-0.00047790007326,-0.0004047785103785,-0.0004767288156288,-0.0005098888888888
-0.0005099791941391,-0.0004460031746031,-0.0003862476190476,0.0004757809279609,-6.078468864468836e-05,-0.0004164139926739,-0.0003871672771672,-0.0001551253968253,-0.0004688261538461,-0.0003957155067155,-0.0004706941391941,-0.0005038542124542
-0.0004917654212454,-0.0004247655677655,-0.0003862476190476,0.000457599096459,-5.166615384615356e-05,-0.0004042558485958,-0.0003902158730158,-0.0001338365079365,-0.0004627768742368,-0.0003896735042735,-0.0004646594627594,-0.0005008368742368
-0.0004826585347985,-0.0004095958485958,-0.000380165079365,0.0004454778754578,-5.166615384615356e-05,-0.0003951372405372,-0.0003932644688644,-0.000106465079365,-0.0004567275946275,-0.0003836315018315,-0.0004586247863247,-0.0004917848595848
-0.0004826585347985,-0.0004035279609279,-0.0003740825396825,0.0004424475702075,-5.470566544566516e-05,-0.0003890581684981,-0.0003902158730158,-7.605238095238064e-05,-0.0004416043956043,-0.0003775894993894,-0.0004495727716727,-0.0004827328449328
-0.0004826585347985,-0.00039746007326,-0.0003679999999999,0.0004394172649572,-5.774517704517676e-05,-0.000382979096459,-0.0003841186813186,-4.868095238095208e-05,-0.0004325304761904,-0.0003715474969474,-0.0004465554334554,-0.0004736808302808
-0.0004765872771672,-0.0003822903540903,-0.0003588761904761,0.000427296043956,-5.774517704517676e-05,-0.0003708209523809,-0.0003841186813186,-3.3474603174602874e-05,-0.0004234565567765,-0.0003685264957264,-0.000443538095238,-0.0004676461538461
-0.0004674803907203,-0.0003610527472527,-0.0003467111111111,0.0004121445177045,-6.078468864468836e-05,-0.0003525837362637,-0.0003871672771672,-1.8268253968253663e-05,-0.0004113579975579,-0.0003594634920634,-0.000434486080586,-0.0004585941391941
-0.0004553378754578,-0.0003489169719169,-0.0003436698412698,0.0004000232967032,-5.470566544566516e-05,-0.0003465046642246,-0.0003871672771672,3.0206349206352205e-06,-0.000402284078144,-0.0003473794871794,-0.0004224167277167,-0.0004465247863247
-0.0004523022466422,-0.0003337472527472,-0.0003315047619047,0.0003909323809523,-6.078468864468836e-05,-0.0003313069841269,-0.0003841186813186,2.1268253968254267e-05,-0.0003901855189255,-0.0003352954822954,-0.0004043126984126,-0.000431438095238
-0.0004492666178266,-0.0003155435897435,-0.0003132571428571,0.0003818414652014,-6.686371184371155e-05,-0.0003130697680097,-0.00038107008547,3.647460317460347e-05,-0.0003811115995115,-0.0003262324786324,-0.0003922433455433,-0.0004193687423687
-0.0004462309890109,-0.0002973399267399,-0.0002980507936507,0.0003697202442002,-7.294273504273476e-05,-0.000297872087912,-0.00038107008547,4.2557142857143154e-05,-0.0003750623199023,-0.0003171694749694,-0.0003862086691086,-0.0004072993894993
-0.0004462309890109,-0.0002791362637362,-0.0002828444444444,0.0003606293284493,-8.206126984126955e-05,-0.0002796348717948,-0.0003841186813186,4.863968253968283e-05,-0.0003629637606837,-0.0003050854700854,-0.0003711219780219,-0.0003891953601953
-0.0004431953601953,-0.0002670004884004,-0.0002767619047619,0.0003545687179487,-8.206126984126955e-05,-0.0002705162637362,-0.0003871672771672,5.168095238095267e-05,-0.0003569144810744,-0.0002960224664224,-0.0003560352869352,-0.000377126007326
-0.0004371241025641,-0.0002609326007326,-0.0002767619047619,0.0003485081074481,-7.902175824175796e-05,-0.0002674767277167,-0.000396313064713,3.951587301587331e-05,-0.0003599391208791,-0.0002930014652014,-0.0003500006105006,-0.0003680739926739
-0.0004371241025641,-0.0002396949938949,-0.0002585142857142,0.0003363868864468,-8.814029304029276e-05,-0.0002492395115995,-0.0004085074481074,2.1268253968254267e-05,-0.000369013040293,-0.0002960224664224,-0.0003469832722832,-0.0003620393162393
-0.0004310528449328,-0.0002154234432234,-0.0002341841269841,0.0003212353601953,-9.725882783882755e-05,-0.0002249232234432,-0.0004207018315018,-9.144444444444142e-06,-0.0003750623199023,-0.0002990434676434,-0.0003439659340659,-0.0003560046398046
-0.0004310528449328,-0.0001972197802197,-0.0002189777777777,0.0003121444444444,-0.0001063773626373,-0.000206686007326,-0.000426799023199,-3.955714285714255e-05,-0.0003720376800976,-0.0002930014652014,-0.0003288792429792,-0.0003439352869352
-0.0004249815873015,-0.0001911518925518,-0.0002189777777777,0.0003060838339438,-0.0001033378510378,-0.0002036464713064,-0.0004298476190476,-6.996984126984096e-05,-0.0003720376800976,-0.0002809174603174,-0.0003168098901098,-0.0003228139194139
-0.0004371241025641,-0.0002032876678876,-0.0002189777777777,0.000318205054945,-0.0001094168742368,-0.0002097255433455,-0.000442042002442,-0.0001155888888888,-0.0003841362393162,-0.0002839384615384,-0.0003137925518925,-0.0003137619047619
-0.0004492666178266,-0.0002123894993894,-0.0002128952380952,0.0003303262759462,-0.0001185354090354,-0.000212765079365,-0.0004572849816849,-0.0001672904761904,-0.0003992594383394,-0.0002899804639804,-0.0003137925518925,-0.0003167792429792
-0.0004553378754578,-0.0002154234432234,-0.0002098539682539,0.0003333565811965,-0.0001215749206349,-0.000212765079365,-0.0004664307692307,-0.0002220333333333,-0.0004204319169719,-0.0002990434676434,-0.0003198272283272,-0.0003197965811965
-0.0004644447619047,-0.0002245252747252,-0.0002128952380952,0.0003424474969474,-0.0001246144322344,-0.0002188441514041,-0.0004755765567765,-0.0002737349206349,-0.0004355551159951,-0.0003111274725274,-0.0003288792429792,-0.0003258312576312
-0.0004765872771672,-0.0002396949938949,-0.0002159365079365,0.000357599023199,-0.0001306934554334,-0.0002279627594627,-0.0004786251526251,-0.0003284777777777,-0.0004537029548229,-0.0003292534798534,-0.0003439659340659,-0.0003409179487179
-0.0004856941636141,-0.0002639665445665,-0.0002311428571428,0.0003727505494505,-0.0001276539438339,-0.0002461999755799,-0.0004786251526251,-0.0003740968253968,-0.00047790007326,-0.0003443584859584,-0.0003590526251526,-0.0003590219780219
-0.0005008723076923,-0.0002973399267399,-0.0002493904761904,0.0003969929914529,-0.0001246144322344,-0.0002735557997557,-0.0004816737484737,-0.0004166746031746,-0.0004990725518925,-0.0003594634920634,-0.0003741393162393,-0.0003741086691086
-0.0005099791941391,-0.0003276793650793,-0.000267638095238,0.0004182051282051,-0.0001215749206349,-0.000297872087912,-0.0004816737484737,-0.0004531698412698,-0.000520245030525,-0.0003715474969474,-0.0003922433455433,-0.0003891953601953
-0.0005160504517704,-0.0003580188034188,-0.0002889269841269,0.0004363869597069,-0.0001124563858363,-0.0003221883760683,-0.0004877709401709,-0.000489665079365,-0.0005474667887667,-0.0003926945054945,-0.0004103473748473,-0.000413334065934
-0.000519086080586,-0.0003792564102564,-0.0003071746031746,0.0004485081807081,-0.0001063773626373,-0.0003434651282051,-0.0004938681318681,-0.0005261603174603,-0.0005625899877899,-0.0004108205128205,-0.000425434065934,-0.000431438095238
-0.0005281929670329,-0.0004035279609279,-0.0003254222222222,0.0004636597069597,-0.0001002983394383,-0.0003647418803418,-0.0004969167277167,-0.0005535317460317,-0.0005807378266178,-0.0004289465201465,-0.0004405207570207,-0.0004495421245421
-0.0005433711111111,-0.0004338673992673,-0.0003467111111111,0.0004879021489621,-9.725882783882755e-05,-0.0003890581684981,-0.0004969167277167,-0.0005778619047619,-0.0006019103052503,-0.0004470725274725,-0.0004616421245421,-0.0004706634920634
-0.0005676561416361,-0.000455105006105,-0.0003436698412698,0.0005091142857142,-0.0001124563858363,-0.0003981767765567,-0.0004938681318681,-0.0005991507936507,-0.0006140088644688,-0.0004531145299145,-0.0004706941391941,-0.0004766981684981
-0.0005706917704517,-0.0004672407814407,-0.0003467111111111,0.0005182052014652,-0.0001124563858363,-0.0004072953846153,-0.0004938681318681,-0.0006082746031746,-0.0006200581440781,-0.0004591565323565,-0.0004737114774114,-0.0004797155067155
-0.0005676561416361,-0.0004763426129426,-0.0003619174603174,0.0005212355067155,-0.0001033378510378,-0.0004194535286935,-0.0004969167277167,-0.0006234809523809,-0.0006321567032967,-0.0004712405372405,-0.0004827634920634,-0.0004887675213675
-0.0005646205128205,-0.0004915123321123,-0.0003771238095238,0.0005272961172161,-9.421931623931596e-05,-0.0004346512087912,-0.0004999653235653,-0.000635646031746,-0.0006442552625152,-0.0004803035409035,-0.0004948328449328,-0.0005008368742368
-0.0005706917704517,-0.0005127499389499,-0.0003953714285714,0.0005394173382173,-8.814029304029276e-05,-0.0004528884249084,-0.0004969167277167,-0.0006447698412698,-0.0006533291819291,-0.0004893665445665,-0.0005069021978021,-0.0005129062271062
-0.000576763028083,-0.0005309536019536,-0.0004105777777777,0.0005515385592185,-8.206126984126955e-05,-0.0004711256410256,-0.0004877709401709,-0.0006478111111111,-0.0006593784615384,-0.0004954085470085,-0.0005159542124542,-0.0005219582417582
-0.0005706917704517,-0.0005279196581196,-0.0004105777777777,0.0005485082539682,-7.902175824175796e-05,-0.0004680861050061,-0.0004908195360195,-0.0006569349206349,-0.0006654277411477,-0.0004984295482295,-0.0005189715506715,-0.0005279929181929
-0.0005828342857142,-0.0005248857142857,-0.0003953714285714,0.0005515385592185,-9.421931623931596e-05,-0.0004589674969474,-0.0005030139194139,-0.0006630174603174,-0.0006684523809523,-0.0005014505494505,-0.0005189715506715,-0.0005249755799755
-0.0005828342857142,-0.0005309536019536,-0.0004014539682539,0.0005545688644688,-9.117980463980436e-05,-0.0004650465689865,-0.0005060625152625,-0.0006660587301587,-0.0006745016605616,-0.0005044715506715,-0.0005250062271062,-0.0005340275946275
-0.0005828342857142,-0.0005400554334554,-0.0004105777777777,0.0005606294749694,-8.510078144078116e-05,-0.0004741651770451,-0.0004999653235653,-0.0006690999999999,-0.0006745016605616,-0.0005105135531135,-0.0005340582417582,-0.0005430796092796
-0.0005828342857142,-0.0005400554334554,-0.0004105777777777,0.0005606294749694,-8.510078144078116e-05,-0.0004741651770451,-0.0004908195360195,-0.0006690999999999,-0.000671477020757,-0.0005135345543345,-0.0005340582417582,-0.0005430796092796
-0.0005889055433455,-0.0005400554334554,-0.0004075365079365,0.0005636597802197,-9.117980463980436e-05,-0.0004741651770451,-0.0004847223443223,-0.0006630174603174,-0.000671477020757,-0.0005105135531135,-0.0005280235653235,-0.0005370449328449
-0.0005889055433455,-0.0005461233211233,-0.0004075365079365,0.00056669008547,-9.117980463980436e-05,-0.0004772047130647,-0.0004847223443223,-0.0006599761904761,-0.0006684523809523,-0.0005074925518925,-0.0005250062271062,-0.0005340275946275
-0.0005858699145299,-0.0005521912087912,-0.0004227428571428,0.00056669008547,-8.206126984126955e-05,-0.0004863233211233,-0.0004877709401709,-0.0006630174603174,-0.0006745016605616,-0.0005165555555555,-0.0005340582417582,-0.0005370449328449
-0.0005889055433455,-0.000558259096459,-0.0004227428571428,0.0005727506959706,-8.206126984126955e-05,-0.0004893628571428,-0.0004877709401709,-0.0006690999999999,-0.0006805509401709,-0.0005225975579975,-0.0005400929181929,-0.0005430796092796
-0.0005980124297924,-0.000561293040293,-0.0004166603174603,0.0005788113064713,-9.117980463980436e-05,-0.0004893628571428,-0.0004847223443223,-0.0006630174603174,-0.0006775263003663,-0.0005195765567765,-0.0005370755799755,-0.0005430796092796
-0.0006040836874236,-0.0005643269841269,-0.000413619047619,0.0005818416117216,-9.421931623931596e-05,-0.0004893628571428,-0.0004816737484737,-0.0006569349206349,-0.0006745016605616,-0.0005195765567765,-0.0005370755799755,-0.0005400622710622
-0.0005949768009768,-0.000561293040293,-0.0004227428571428,0.000575781001221,-8.510078144078116e-05,-0.0004924023931623,-0.0004847223443223,-0.0006538936507936,-0.0006745016605616,-0.0005195765567765,-0.0005400929181929,-0.0005430796092796
-0.0005858699145299,-0.0005643269841269,-0.0004349079365079,0.0005727506959706,-7.598224664224636e-05,-0.0004984814652014,-0.0004847223443223,-0.0006478111111111,-0.0006745016605616,-0.0005195765567765,-0.0005431102564102,-0.0005460969474969
-0.0005949768009768,-0.0005673609279609,-0.0004288253968253,0.0005788113064713,-8.206126984126955e-05,-0.0004984814652014,-0.0004816737484737,-0.0006386873015873,-0.0006745016605616,-0.0005225975579975,-0.0005431102564102,-0.0005491142857142
-0.0005980124297924,-0.0005703948717948,-0.0004227428571428,0.0005818416117216,-8.814029304029276e-05,-0.0004954419291819,-0.0004786251526251,-0.000635646031746,-0.000671477020757,-0.0005225975579975,-0.0005461275946275,-0.0005551489621489
-0.0005919411721611,-0.0005703948717948,-0.0004318666666666,0.0005788113064713,-7.902175824175796e-05,-0.000501521001221,-0.0004786251526251,-0.000635646031746,-0.0006745016605616,-0.0005286395604395,-0.0005491449328449,-0.0005581663003663
-0.0005858699145299,-0.0005673609279609,-0.0004318666666666,0.000575781001221,-7.598224664224636e-05,-0.0004984814652014,-0.0004786251526251,-0.000635646031746,-0.000671477020757,-0.0005256185592185,-0.0005491449328449,-0.0005581663003663
-0.0005919411721611,-0.0005673609279609,-0.0004288253968253,0.0005788113064713,-8.206126984126955e-05,-0.0004984814652014,-0.0004816737484737,-0.0006326047619047,-0.0006684523809523,-0.0005256185592185,-0.0005491449328449,-0.0005551489621489
-0.0005980124297924,-0.0005673609279609,-0.0004227428571428,0.0005818416117216,-8.814029304029276e-05,-0.0004954419291819,-0.0004755765567765,-0.0006295634920634,-0.0006654277411477,-0.0005225975579975,-0.0005491449328449,-0.0005551489621489
-0.0006040836874236,-0.0005734288156288,-0.0004227428571428,0.0005879022222222,-9.117980463980436e-05,-0.0004984814652014,-0.0004694793650793,-0.0006204396825396,-0.0006624031013431,-0.0005195765567765,-0.0005461275946275,-0.0005551489621489
-0.0005949768009768,-0.0005764627594627,-0.0004318666666666,0.0005848719169719,-8.206126984126955e-05,-0.0005045605372405,-0.0004694793650793,-0.0006204396825396,-0.0006563538217338,-0.0005165555555555,-0.0005461275946275,-0.0005551489621489
-0.0005858699145299,-0.0005764627594627,-0.0004440317460317,0.0005788113064713,-6.990322344322315e-05,-0.0005106396092796,-0.0004725279609279,-0.0006173984126984,-0.0006533291819291,-0.0005135345543345,-0.0005461275946275,-0.0005581663003663
-0.0005919411721611,-0.0005794967032967,-0.0004379492063492,0.0005848719169719,-7.598224664224636e-05,-0.00050760007326,-0.0004694793650793,-0.0006143571428571,-0.0006503045421245,-0.0005105135531135,-0.0005461275946275,-0.0005551489621489
-0.0005949768009768,-0.0005794967032967,-0.0004379492063492,0.0005848719169719,-7.902175824175796e-05,-0.00050760007326,-0.0004664307692307,-0.0006113158730158,-0.0006533291819291,-0.0005165555555555,-0.0005491449328449,-0.0005581663003663
-0.0005889055433455,-0.0005764627594627,-0.0004379492063492,0.0005818416117216,-7.598224664224636e-05,-0.00050760007326,-0.0004725279609279,-0.0006173984126984,-0.0006624031013431,-0.0005286395604395,-0.0005612142857142,-0.0005732529914529
-0.0005919411721611,-0.0005673609279609,-0.0004257841269841,0.0005788113064713,-8.206126984126955e-05,-0.0004954419291819,-0.0004755765567765,-0.0006173984126984,-0.0006624031013431,-0.0005286395604395,-0.0005612142857142,-0.0005732529914529
-0.000601048058608,-0.000561293040293,-0.0004105777777777,0.0005788113064713,-9.421931623931596e-05,-0.0004863233211233,-0.0004755765567765,-0.0006143571428571,-0.0006533291819291,-0.0005195765567765,-0.0005491449328449,-0.0005611836385836
-0.0006071193162393,-0.000558259096459,-0.0004044952380952,0.0005818416117216,-0.0001002983394383,-0.0004802442490842,-0.0004725279609279,-0.0006113158730158,-0.0006472799023199,-0.0005105135531135,-0.0005400929181929,-0.0005521316239316
-0.000601048058608,-0.0005673609279609,-0.0004166603174603,0.0005818416117216,-9.117980463980436e-05,-0.0004924023931623,-0.0004725279609279,-0.0006082746031746,-0.0006442552625152,-0.0005044715506715,-0.0005400929181929,-0.0005491142857142
-0.0005828342857142,-0.0005734288156288,-0.0004409904761904,0.000575781001221,-6.990322344322315e-05,-0.00050760007326,-0.0004786251526251,-0.0006143571428571,-0.0006503045421245,-0.0005044715506715,-0.0005370755799755,-0.0005491142857142
-0.000576763028083,-0.0005673609279609,-0.0004440317460317,0.0005697203907203,-6.686371184371155e-05,-0.0005045605372405,-0.0004847223443223,-0.0006173984126984,-0.0006503045421245,-0.0004984295482295,-0.0005310409035409,-0.0005400622710622
-0.0005889055433455,-0.0005552251526251,-0.0004166603174603,0.0005697203907203,-8.510078144078116e-05,-0.0004863233211233,-0.0004877709401709,-0.0006143571428571,-0.0006472799023199,-0.0004923875457875,-0.0005189715506715,-0.0005279929181929
-0.0005889055433455,-0.0005461233211233,-0.0004075365079365,0.00056669008547,-9.117980463980436e-05,-0.0004772047130647,-0.0004938681318681,-0.0006173984126984,-0.0006503045421245,-0.0004923875457875,-0.0005189715506715,-0.0005310102564102
-0.0005828342857142,-0.0005430893772893,-0.0004105777777777,0.0005606294749694,-8.510078144078116e-05,-0.0004772047130647,-0.0004969167277167,-0.0006234809523809,-0.0006533291819291,-0.0004984295482295,-0.0005280235653235,-0.0005370449328449
-0.0005889055433455,-0.0005400554334554,-0.0004044952380952,0.0005636597802197,-9.117980463980436e-05,-0.0004711256410256,-0.0004908195360195,-0.0006234809523809,-0.0006533291819291,-0.0005014505494505,-0.0005280235653235,-0.0005400622710622
-0.0005797986568986,-0.0005461233211233,-0.0004166603174603,0.0005606294749694,-8.206126984126955e-05,-0.0004802442490842,-0.0004877709401709,-0.0006265222222222,-0.0006533291819291,-0.0005044715506715,-0.0005310409035409,-0.0005430796092796
-0.0005646205128205,-0.0005552251526251,-0.0004440317460317,0.0005575991697191,-6.078468864468836e-05,-0.0004984814652014,-0.0004938681318681,-0.0006326047619047,-0.0006593784615384,-0.0005105135531135,-0.0005370755799755,-0.0005460969474969
-0.0005676561416361,-0.000558259096459,-0.0004409904761904,0.0005606294749694,-6.382420024419996e-05,-0.0004984814652014,-0.0004969167277167,-0.000635646031746,-0.0006593784615384,-0.0005044715506715,-0.0005310409035409,-0.0005430796092796
-0.0005737273992673,-0.0005491572649572,-0.0004257841269841,0.0005606294749694,-7.294273504273476e-05,-0.0004863233211233,-0.0004969167277167,-0.0006386873015873,-0.0006593784615384,-0.0005014505494505,-0.0005280235653235,-0.0005370449328449
-0.0005797986568986,-0.0005430893772893,-0.0004166603174603,0.0005606294749694,-8.206126984126955e-05,-0.0004802442490842,-0.0004969167277167,-0.0006386873015873,-0.0006593784615384,-0.0004984295482295,-0.0005219888888888,-0.0005340275946275
-0.0005797986568986,-0.0005430893772893,-0.0004166603174603,0.0005606294749694,-8.206126984126955e-05,-0.0004802442490842,-0.0005030139194139,-0.0006386873015873,-0.0006533291819291,-0.0004954085470085,-0.0005219888888888,-0.0005310102564102
-0.000576763028083,-0.0005461233211233,-0.0004197015873015,0.0005606294749694,-7.902175824175796e-05,-0.0004832837851037,-0.0005060625152625,-0.0006386873015873,-0.0006593784615384,-0.0005014505494505,-0.0005250062271062,-0.0005340275946275
-0.0005706917704517,-0.0005491572649572,-0.0004288253968253,0.0005575991697191,-6.990322344322315e-05,-0.0004893628571428,-0.0005121597069597,-0.0006447698412698,-0.0006593784615384,-0.0005014505494505,-0.0005310409035409,-0.0005400622710622
-0.0005828342857142,-0.0005461233211233,-0.0004166603174603,0.0005636597802197,-8.206126984126955e-05,-0.0004802442490842,-0.0005091111111111,-0.0006478111111111,-0.0006563538217338,-0.0004984295482295,-0.0005219888888888,-0.0005340275946275
-0.0005828342857142,-0.0005491572649572,-0.0004166603174603,0.0005636597802197,-8.206126984126955e-05,-0.0004832837851037,-0.0004999653235653,-0.0006478111111111,-0.0006563538217338,-0.0004954085470085,-0.0005189715506715,-0.0005279929181929
-0.0005797986568986,-0.0005521912087912,-0.0004227428571428,0.0005636597802197,-7.902175824175796e-05,-0.0004863233211233,-0.0004969167277167,-0.0006478111111111,-0.0006563538217338,-0.0004893665445665,-0.0005159542124542,-0.0005219582417582
-0.000576763028083,-0.0005521912087912,-0.0004318666666666,0.0005636597802197,-7.294273504273476e-05,-0.0004924023931623,-0.0005030139194139,-0.0006508523809523,-0.0006624031013431,-0.0004923875457875,-0.0005159542124542,-0.0005219582417582
-0.0005797986568986,-0.000558259096459,-0.0004318666666666,0.00056669008547,-7.294273504273476e-05,-0.0004954419291819,-0.0005091111111111,-0.0006538936507936,-0.0006684523809523,-0.0005014505494505,-0.0005219888888888,-0.0005279929181929
-0.0005797986568986,-0.0005521912087912,-0.0004318666666666,0.0005636597802197,-7.294273504273476e-05,-0.0004924023931623,-0.0005121597069597,-0.0006599761904761,-0.0006775263003663,-0.0005074925518925,-0.0005250062271062,-0.0005340275946275
-0.0005858699145299,-0.0005461233211233,-0.0004166603174603,0.0005636597802197,-8.510078144078116e-05,-0.0004802442490842,-0.0005091111111111,-0.0006630174603174,-0.0006745016605616,-0.0005074925518925,-0.0005250062271062,-0.0005340275946275
-0.0005828342857142,-0.0005400554334554,-0.0004075365079365,0.0005606294749694,-8.814029304029276e-05,-0.0004741651770451,-0.0005091111111111,-0.0006630174603174,-0.000671477020757,-0.0005044715506715,-0.0005250062271062,-0.0005310102564102
-0.000576763028083,-0.0005461233211233,-0.0004166603174603,0.0005606294749694,-7.902175824175796e-05,-0.0004802442490842,-0.0005121597069597,-0.0006630174603174,-0.000671477020757,-0.0005014505494505,-0.0005219888888888,-0.0005279929181929
-0.0005858699145299,-0.0005552251526251,-0.0004197015873015,0.0005697203907203,-8.206126984126955e-05,-0.0004863233211233,-0.0005121597069597,-0.0006599761904761,-0.000671477020757,-0.0004984295482295,-0.0005219888888888,-0.0005249755799755
-0.0005858699145299,-0.0005552251526251,-0.0004288253968253,0.0005697203907203,-7.902175824175796e-05,-0.0004924023931623,-0.0005152083028083,-0.0006660587301587,-0.0006775263003663,-0.0005044715506715,-0.0005219888888888,-0.0005279929181929
-0.0005706917704517,-0.0005521912087912,-0.0004379492063492,0.0005606294749694,-6.686371184371155e-05,-0.0004954419291819,-0.0005182568986568,-0.0006721412698412,-0.0006835755799755,-0.0005105135531135,-0.0005219888888888,-0.0005310102564102
-0.000576763028083,-0.0005461233211233,-0.0004257841269841,0.0005606294749694,-7.598224664224636e-05,-0.0004863233211233,-0.0005182568986568,-0.0006751825396825,-0.0006835755799755,-0.0005105135531135,-0.0005250062271062,-0.0005310102564102
-0.0005828342857142,-0.0005400554334554,-0.0004105777777777,0.0005606294749694,-8.510078144078116e-05,-0.0004741651770451,-0.0005213054945054,-0.0006782238095238,-0.0006805509401709,-0.0005105135531135,-0.0005219888888888,-0.0005279929181929
-0.000576763028083,-0.0005491572649572,-0.0004257841269841,0.0005606294749694,-7.598224664224636e-05,-0.0004863233211233,-0.0005213054945054,-0.0006782238095238,-0.0006835755799755,-0.0005074925518925,-0.0005250062271062,-0.0005310102564102
-0.0005797986568986,-0.0005643269841269,-0.0004409904761904,0.0005697203907203,-6.990322344322315e-05,-0.000501521001221,-0.0005121597069597,-0.0006721412698412,-0.0006805509401709,-0.0005074925518925,-0.0005250062271062,-0.0005279929181929
-0.0005858699145299,-0.0005703948717948,-0.0004379492063492,0.000575781001221,-7.294273504273476e-05,-0.0005045605372405,-0.0005121597069597,-0.0006690999999999,-0.0006775263003663,-0.0005044715506715,-0.0005219888888888,-0.0005279929181929
-0.0005797986568986,-0.0005643269841269,-0.0004349079365079,0.0005697203907203,-7.294273504273476e-05,-0.0004984814652014,-0.0005152083028083,-0.0006690999999999,-0.0006835755799755,-0.0005074925518925,-0.0005250062271062,-0.0005279929181929
-0.0005737273992673,-0.000558259096459,-0.0004349079365079,0.0005636597802197,-6.990322344322315e-05,-0.0004954419291819,-0.0005213054945054,-0.0006782238095238,-0.0006896248595848,-0.0005165555555555,-0.0005310409035409,-0.0005340275946275
-0.000576763028083,-0.000561293040293,-0.0004349079365079,0.00056669008547,-6.990322344322315e-05,-0.0004984814652014,-0.0005213054945054,-0.0006843063492063,-0.0006896248595848,-0.0005195765567765,-0.0005340582417582,-0.0005370449328449
-0.0005797986568986,-0.0005673609279609,-0.0004379492063492,0.0005727506959706,-6.990322344322315e-05,-0.000501521001221,-0.0005152083028083,-0.000681265079365,-0.0006835755799755,-0.0005165555555555,-0.0005340582417582,-0.0005370449328449
-0.0005889055433455,-0.0005673609279609,-0.0004288253968253,0.000575781001221,-7.902175824175796e-05,-0.0004984814652014,-0.0005091111111111,-0.0006782238095238,-0.0006805509401709,-0.0005105135531135,-0.0005280235653235,-0.0005279929181929
-0.0005858699145299,-0.0005643269841269,-0.0004288253968253,0.0005727506959706,-7.902175824175796e-05,-0.0004954419291819,-0.0005091111111111,-0.0006751825396825,-0.0006805509401709,-0.0005074925518925,-0.0005219888888888,-0.0005249755799755
-0.0005737273992673,-0.0005643269841269,-0.0004379492063492,0.00056669008547,-6.686371184371155e-05,-0.000501521001221,-0.0005152083028083,-0.0006751825396825,-0.0006866002197802,-0.0005074925518925,-0.0005219888888888,-0.0005249755799755
-0.0005676561416361,-0.0005552251526251,-0.0004379492063492,0.0005606294749694,-6.382420024419996e-05,-0.0004954419291819,-0.0005182568986568,-0.0006721412698412,-0.0006866002197802,-0.0005074925518925,-0.0005250062271062,-0.0005279929181929
-0.0005737273992673,-0.000558259096459,-0.0004349079365079,0.0005636597802197,-6.990322344322315e-05,-0.0004954419291819,-0.0005213054945054,-0.0006721412698412,-0.0006866002197802,-0.0005105135531135,-0.0005280235653235,-0.0005310102564102
-0.000576763028083,-0.0005552251526251,-0.0004318666666666,0.0005636597802197,-7.294273504273476e-05,-0.0004924023931623,-0.000524354090354,-0.0006782238095238,-0.0006896248595848,-0.0005165555555555,-0.0005310409035409,-0.0005340275946275
-0.0005737273992673,-0.0005491572649572,-0.0004318666666666,0.0005606294749694,-6.990322344322315e-05,-0.0004893628571428,-0.0005274026862026,-0.000681265079365,-0.0006866002197802,-0.0005135345543345,-0.0005340582417582,-0.0005370449328449
-0.0005706917704517,-0.0005552251526251,-0.0004349079365079,0.0005606294749694,-6.686371184371155e-05,-0.0004954419291819,-0.000524354090354,-0.0006782238095238,-0.0006835755799755,-0.0005105135531135,-0.0005340582417582,-0.0005400622710622
-0.0005737273992673,-0.0005703948717948,-0.000447073015873,0.0005697203907203,-6.382420024419996e-05,-0.00050760007326,-0.0005152083028083,-0.0006782238095238,-0.0006896248595848,-0.0005135345543345,-0.0005370755799755,-0.0005430796092796
-0.0005797986568986,-0.0005734288156288,-0.0004440317460317,0.000575781001221,-6.686371184371155e-05,-0.00050760007326,-0.0005121597069597,-0.0006751825396825,-0.0006866002197802,-0.0005105135531135,-0.0005340582417582,-0.0005370449328449
-0.0005797986568986,-0.0005673609279609,-0.0004379492063492,0.0005727506959706,-6.990322344322315e-05,-0.000501521001221,-0.0005121597069597,-0.0006782238095238,-0.0006835755799755,-0.0005105135531135,-0.0005280235653235,-0.0005279929181929
-0.0005706917704517,-0.000558259096459,-0.0004409904761904,0.0005636597802197,-6.382420024419996e-05,-0.0004984814652014,-0.0005182568986568,-0.0006782238095238,-0.0006835755799755,-0.0005074925518925,-0.0005250062271062,-0.0005249755799755
-0.0005797986568986,-0.0005673609279609,-0.0004409904761904,0.0005727506959706,-6.990322344322315e-05,-0.0005045605372405,-0.0005213054945054,-0.0006751825396825,-0.0006835755799755,-0.0005074925518925,-0.0005250062271062,-0.0005219582417582
-0.0005828342857142,-0.0005764627594627,-0.0004409904761904,0.0005788113064713,-6.990322344322315e-05,-0.00050760007326,-0.0005182568986568,-0.0006751825396825,-0.0006835755799755,-0.0005074925518925,-0.0005250062271062,-0.0005279929181929
-0.0005797986568986,-0.0005734288156288,-0.0004440317460317,0.000575781001221,-6.686371184371155e-05,-0.00050760007326,-0.0005152083028083,-0.0006782238095238,-0.0006896248595848,-0.0005135345543345,-0.0005310409035409,-0.0005340275946275
-0.0005797986568986,-0.0005734288156288,-0.0004440317460317,0.000575781001221,-6.686371184371155e-05,-0.00050760007326,-0.0005152083028083,-0.000681265079365,-0.0006896248595848,-0.0005135345543345,-0.0005340582417582,-0.0005370449328449
-0.0005858699145299,-0.0005703948717948,-0.0004349079365079,0.000575781001221,-7.598224664224636e-05,-0.000501521001221,-0.0005152083028083,-0.000681265079365,-0.0006866002197802,-0.0005165555555555,-0.0005340582417582,-0.0005400622710622
-0.000576763028083,-0.0005734288156288,-0.0004409904761904,0.0005727506959706,-6.686371184371155e-05,-0.00050760007326,-0.0005121597069597,-0.000681265079365,-0.0006866002197802,-0.0005195765567765,-0.0005400929181929,-0.0005400622710622
-0.0005797986568986,-0.0005794967032967,-0.0004531555555555,0.0005788113064713,-6.382420024419996e-05,-0.0005167186813186,-0.0005121597069597,-0.0006782238095238,-0.0006866002197802,-0.0005195765567765,-0.0005400929181929,-0.0005370449328449
-0.000576763028083,-0.0005855645909645,-0.0004622793650793,0.0005788113064713,-5.774517704517676e-05,-0.0005227977533577,-0.0005091111111111,-0.0006782238095238,-0.0006926494993894,-0.0005225975579975,-0.0005400929181929,-0.0005400622710622
-0.0005737273992673,-0.0005825306471306,-0.000459238095238,0.000575781001221,-5.774517704517676e-05,-0.0005197582173382,-0.0005121597069597,-0.000681265079365,-0.0006956741391941,-0.0005225975579975,-0.0005400929181929,-0.0005400622710622
-0.0005828342857142,-0.0005673609279609,-0.0004349079365079,0.0005727506959706,-7.294273504273476e-05,-0.000501521001221,-0.0005182568986568,-0.0006782238095238,-0.0006926494993894,-0.0005135345543345,-0.0005310409035409,-0.0005310102564102
-0.0005858699145299,-0.0005643269841269,-0.0004318666666666,0.0005727506959706,-7.598224664224636e-05,-0.0004984814652014,-0.0005152083028083,-0.0006751825396825,-0.0006835755799755,-0.0005105135531135,-0.0005250062271062,-0.0005279929181929
-0.0005828342857142,-0.0005764627594627,-0.000447073015873,0.0005788113064713,-6.686371184371155e-05,-0.0005106396092796,-0.0005121597069597,-0.0006751825396825,-0.0006835755799755,-0.0005105135531135,-0.0005280235653235,-0.0005310102564102
-0.0005828342857142,-0.0005794967032967,-0.0004501142857142,0.0005788113064713,-6.686371184371155e-05,-0.0005136791452991,-0.0005091111111111,-0.0006782238095238,-0.0006926494993894,-0.0005195765567765,-0.0005340582417582,-0.0005400622710622
-0.0005828342857142,-0.0005764627594627,-0.000447073015873,0.0005788113064713,-6.686371184371155e-05,-0.0005106396092796,-0.0005121597069597,-0.0006843063492063,-0.0006956741391941,-0.0005225975579975,-0.0005370755799755,-0.0005400622710622
-0.0005889055433455,-0.0005734288156288,-0.0004409904761904,0.0005788113064713,-7.294273504273476e-05,-0.00050760007326,-0.0005091111111111,-0.0006843063492063,-0.0006956741391941,-0.0005195765567765,-0.0005340582417582,-0.0005340275946275
-0.0005889055433455,-0.0005673609279609,-0.0004349079365079,0.000575781001221,-7.598224664224636e-05,-0.000501521001221,-0.0005060625152625,-0.0006782238095238,-0.0006896248595848,-0.0005195765567765,-0.0005340582417582,-0.0005310102564102
-0.0005828342857142,-0.0005764627594627,-0.0004440317460317,0.0005788113064713,-6.990322344322315e-05,-0.0005106396092796,-0.0005030139194139,-0.0006751825396825,-0.0006896248595848,-0.0005165555555555,-0.0005340582417582,-0.0005340275946275
-0.0005797986568986,-0.0005855645909645,-0.0004561968253968,0.0005818416117216,-6.078468864468836e-05,-0.0005197582173382,-0.0005030139194139,-0.0006782238095238,-0.0006926494993894,-0.0005165555555555,-0.0005370755799755,-0.0005370449328449
-0.0005737273992673,-0.0005794967032967,-0.0004561968253968,0.000575781001221,-5.774517704517676e-05,-0.0005167186813186,-0.0005060625152625,-0.0006843063492063,-0.0006956741391941,-0.0005256185592185,-0.0005400929181929,-0.0005400622710622
-0.000576763028083,-0.0005764627594627,-0.0004501142857142,0.000575781001221,-6.382420024419996e-05,-0.0005136791452991,-0.0005030139194139,-0.000681265079365,-0.0006956741391941,-0.0005225975579975,-0.0005370755799755,-0.0005340275946275
-0.000576763028083,-0.0005764627594627,-0.0004531555555555,0.000575781001221,-6.078468864468836e-05,-0.0005136791452991,-0.0004999653235653,-0.0006751825396825,-0.0006926494993894,-0.0005165555555555,-0.0005370755799755,-0.0005340275946275
-0.0005706917704517,-0.0005764627594627,-0.0004531555555555,0.0005727506959706,-5.774517704517676e-05,-0.0005136791452991,-0.0004999653235653,-0.0006751825396825,-0.0006926494993894,-0.0005195765567765,-0.0005370755799755,-0.0005400622710622
-0.0005737273992673,-0.0005673609279609,-0.000447073015873,0.0005697203907203,-6.382420024419996e-05,-0.00050760007326,-0.0004938681318681,-0.0006751825396825,-0.0006896248595848,-0.0005195765567765,-0.0005370755799755,-0.0005400622710622
-0.0005828342857142,-0.000558259096459,-0.0004288253968253,0.0005697203907203,-7.598224664224636e-05,-0.0004924023931623,-0.0004847223443223,-0.0006630174603174,-0.0006775263003663,-0.0005074925518925,-0.0005280235653235,-0.0005310102564102
-0.0005828342857142,-0.000558259096459,-0.0004288253968253,0.0005697203907203,-7.598224664224636e-05,-0.0004924023931623,-0.0004786251526251,-0.0006599761904761,-0.000671477020757,-0.0005044715506715,-0.0005250062271062,-0.0005249755799755
-0.0005585492551892,-0.0005521912087912,-0.000447073015873,0.0005545688644688,-5.470566544566516e-05,-0.0004984814652014,-0.0004847223443223,-0.0006569349206349,-0.0006775263003663,-0.0005135345543345,-0.0005340582417582,-0.0005310102564102
-0.0005464067399267,-0.0005400554334554,-0.0004409904761904,0.0005424476434676,-5.166615384615356e-05,-0.0004893628571428,-0.0004847223443223,-0.0006478111111111,-0.0006745016605616,-0.0005074925518925,-0.0005280235653235,-0.0005279929181929
-0.0005524779975579,-0.0005218517704517,-0.0004197015873015,0.000536387032967,-6.686371184371155e-05,-0.0004711256410256,-0.0004755765567765,-0.0006386873015873,-0.0006593784615384,-0.0004954085470085,-0.0005159542124542,-0.0005189409035409
-0.0005524779975579,-0.0005006141636141,-0.0004014539682539,0.0005242658119658,-7.598224664224636e-05,-0.0004498488888888,-0.0004603335775335,-0.0006265222222222,-0.0006412306227106,-0.0004803035409035,-0.0005008675213675,-0.0005068715506715
-0.0005433711111111,-0.0004824105006105,-0.0003953714285714,0.0005121445909645,-7.294273504273476e-05,-0.0004376907448107,-0.0004603335775335,-0.0006143571428571,-0.0006230827838827,-0.0004651985347985,-0.0004887981684981,-0.0004978195360195
-0.0005372998534798,-0.0004854444444444,-0.0004014539682539,0.0005091142857142,-6.686371184371155e-05,-0.0004437698168498,-0.0004633821733821,-0.000602192063492,-0.0006170335042735,-0.0004561355311355,-0.0004827634920634,-0.0004917848595848
-0.0005312285958485,-0.0004824105006105,-0.0004075365079365,0.0005060839804639,-6.078468864468836e-05,-0.0004437698168498,-0.0004694793650793,-0.0005961095238095,-0.0006170335042735,-0.0004561355311355,-0.0004827634920634,-0.0004887675213675
-0.0005251573382173,-0.0004702747252747,-0.0003984126984126,0.000496993064713,-6.382420024419996e-05,-0.0004346512087912,-0.0004908195360195,-0.0006113158730158,-0.0006230827838827,-0.0004651985347985,-0.0004857808302808,-0.0004948021978021
-0.0005130148229548,-0.0004763426129426,-0.000413619047619,0.0004939627594627,-4.862664224664196e-05,-0.0004437698168498,-0.0005304512820512,-0.0006447698412698,-0.0006472799023199,-0.0004833245421245,-0.0005008675213675,-0.0005068715506715
-0.0005160504517704,-0.0004945462759462,-0.0004288253968253,0.0005030536752136,-4.254761904761877e-05,-0.000462007032967,-0.0005365484737484,-0.0006508523809523,-0.0006503045421245,-0.0004833245421245,-0.0005008675213675,-0.0005068715506715
-0.0005494423687423,-0.0005127499389499,-0.0004166603174603,0.0005303264224664,-6.686371184371155e-05,-0.0004650465689865,-0.0005213054945054,-0.0006417285714285,-0.0006442552625152,-0.0004712405372405,-0.0004887981684981,-0.0004887675213675
-0.0005615848840048,-0.0005279196581196,-0.0004197015873015,0.0005424476434676,-6.990322344322315e-05,-0.0004741651770451,-0.0005213054945054,-0.0006569349206349,-0.0006654277411477,-0.0004833245421245,-0.0004948328449328,-0.0004948021978021
-0.0005433711111111,-0.0005339875457875,-0.0004409904761904,0.000536387032967,-5.166615384615356e-05,-0.0004863233211233,-0.0005274026862026,-0.0006690999999999,-0.0006835755799755,-0.0005014505494505,-0.0005129368742368,-0.0005098888888888
-0.0005372998534798,-0.0005279196581196,-0.0004409904761904,0.0005303264224664,-4.862664224664196e-05,-0.0004832837851037,-0.0005304512820512,-0.0006690999999999,-0.0006835755799755,-0.0005074925518925,-0.0005159542124542,-0.0005129062271062
-0.0005342642246642,-0.0005370214896214,-0.0004531555555555,0.0005333567277167,-3.950810744810717e-05,-0.0004954419291819,-0.0005274026862026,-0.0006721412698412,-0.0006805509401709,-0.0005044715506715,-0.0005189715506715,-0.0005129062271062
-0.0005372998534798,-0.000558259096459,-0.0004744444444444,0.0005454779487179,-3.0389572649572364e-05,-0.0005167186813186,-0.000524354090354,-0.0006721412698412,-0.0006866002197802,-0.0005044715506715,-0.0005219888888888,-0.0005159235653235
-0.0005312285958485,-0.0005794967032967,-0.0004987746031746,0.0005545688644688,-1.5192014652014368e-05,-0.0005379954334554,-0.0005304512820512,-0.000681265079365,-0.0007077726984126,-0.0005256185592185,-0.0005370755799755,-0.0005310102564102
-0.0005403354822954,-0.0005825306471306,-0.0004896507936507,0.0005606294749694,-2.4310549450549165e-05,-0.0005349558974358,-0.0005304512820512,-0.0006934301587301,-0.0007168466178266,-0.0005377025641025,-0.0005461275946275,-0.0005370449328449
-0.0005646205128205,-0.0005703948717948,-0.000459238095238,0.00056669008547,-5.166615384615356e-05,-0.0005136791452991,-0.0005274026862026,-0.0006964714285714,-0.0007168466178266,-0.0005377025641025,-0.0005491449328449,-0.0005400622710622
-0.0005797986568986,-0.0005673609279609,-0.0004409904761904,0.0005727506959706,-6.990322344322315e-05,-0.0005045605372405,-0.0005213054945054,-0.0006934301587301,-0.0007107973382173,-0.0005346815628815,-0.0005491449328449,-0.0005400622710622
-0.0005858699145299,-0.0005825306471306,-0.0004501142857142,0.0005818416117216,-6.686371184371155e-05,-0.0005167186813186,-0.0005121597069597,-0.0006964714285714,-0.0007107973382173,-0.0005377025641025,-0.0005521622710622,-0.0005460969474969
-0.0005919411721611,-0.0006098361416361,-0.0004683619047619,0.0006000234432234,-6.078468864468836e-05,-0.0005379954334554,-0.0005091111111111,-0.0006995126984126,-0.0007138219780219,-0.0005407235653235,-0.0005581969474969,-0.0005521316239316
-0.0005949768009768,-0.0006250058608058,-0.0004805269841269,0.0006091143589743,-5.774517704517676e-05,-0.0005531931135531,-0.0005091111111111,-0.0007025539682539,-0.0007259205372405,-0.0005467655677655,-0.0005612142857142,-0.0005581663003663
-0.0005949768009768,-0.00061287008547,-0.0004683619047619,0.0006030537484737,-6.382420024419996e-05,-0.0005410349694749,-0.0005121597069597,-0.0007086365079365,-0.0007289451770451,-0.0005467655677655,-0.0005612142857142,-0.0005581663003663
-0.0005919411721611,-0.0006037682539682,-0.0004622793650793,0.0005969931379731,-6.382420024419996e-05,-0.0005319163614163,-0.0005152083028083,-0.0007025539682539,-0.0007228958974358,-0.0005437445665445,-0.0005551796092796,-0.0005491142857142
-0.0005889055433455,-0.0006068021978021,-0.0004683619047619,0.0005969931379731,-6.078468864468836e-05,-0.0005379954334554,-0.0005152083028083,-0.0007055952380952,-0.0007228958974358,-0.0005407235653235,-0.0005521622710622,-0.0005460969474969
-0.0005889055433455,-0.0006068021978021,-0.0004683619047619,0.0005969931379731,-6.078468864468836e-05,-0.0005379954334554,-0.0005152083028083,-0.0006995126984126,-0.0007228958974358,-0.0005407235653235,-0.0005521622710622,-0.0005491142857142
-0.0005889055433455,-0.0006037682539682,-0.0004683619047619,0.0005939628327228,-6.078468864468836e-05,-0.0005349558974358,-0.0005121597069597,-0.0006934301587301,-0.0007198712576312,-0.0005407235653235,-0.0005491449328449,-0.0005491142857142
-0.0005919411721611,-0.0006037682539682,-0.0004653206349206,0.0005969931379731,-6.382420024419996e-05,-0.0005349558974358,-0.0005121597069597,-0.0006995126984126,-0.0007228958974358,-0.0005377025641025,-0.0005491449328449,-0.0005491142857142
-0.000601048058608,-0.0005946664224664,-0.000447073015873,0.0005969931379731,-7.598224664224636e-05,-0.0005197582173382,-0.0005152083028083,-0.0006964714285714,-0.0007228958974358,-0.0005346815628815,-0.0005461275946275,-0.0005430796092796
-0.0005980124297924,-0.0005825306471306,-0.0004349079365079,0.0005879022222222,-8.206126984126955e-05,-0.00050760007326,-0.0005182568986568,-0.0006964714285714,-0.0007198712576312,-0.0005346815628815,-0.0005431102564102,-0.0005400622710622
-0.0005889055433455,-0.0005764627594627,-0.0004379492063492,0.0005818416117216,-7.598224664224636e-05,-0.00050760007326,-0.0005182568986568,-0.0006995126984126,-0.0007168466178266,-0.0005346815628815,-0.0005461275946275,-0.0005400622710622
-0.0005828342857142,-0.0005764627594627,-0.000447073015873,0.0005788113064713,-6.686371184371155e-05,-0.0005106396092796,-0.0005182568986568,-0.0006995126984126,-0.0007168466178266,-0.0005286395604395,-0.0005461275946275,-0.0005430796092796
-0.0005858699145299,-0.0005734288156288,-0.0004440317460317,0.0005788113064713,-6.990322344322315e-05,-0.00050760007326,-0.0005213054945054,-0.0007055952380952,-0.0007138219780219,-0.0005286395604395,-0.0005431102564102,-0.0005460969474969
-0.0005949768009768,-0.0005885985347985,-0.0004440317460317,0.0005909325274725,-7.598224664224636e-05,-0.0005167186813186,-0.0005121597069597,-0.0006782238095238,-0.0006866002197802,-0.0005195765567765,-0.0005461275946275,-0.0005551489621489
-0.0005949768009768,-0.0005673609279609,-0.0004257841269841,0.0005788113064713,-8.510078144078116e-05,-0.0004954419291819,-0.0005030139194139,-0.0006417285714285,-0.000629132063492,-0.0004893665445665,-0.0005400929181929,-0.0005581663003663
-0.0005889055433455,-0.0004793765567765,-0.0003406285714285,0.0005333567277167,-0.0001246144322344,-0.0004103349206349,-0.0005060625152625,-0.0005930682539682,-0.0005474667887667,-0.0004380095238095,-0.0005038848595848,-0.0005370449328449
-0.0005403354822954,-0.0003307133089133,-0.0002433079365079,0.0004333566544566,-0.0001489305250305,-0.0002857139438339,-0.0005426456654456,-0.0004774999999999,-0.0004234565567765,-0.0003201904761904,-0.000416382051282,-0.0004797155067155
-0.0004098034432234,-0.0001062014652014,-0.0001490285714285,0.0002575989499389,-0.0001306934554334,-0.000127658070818,-0.0006158119658119,-0.0003406428571428,-0.0002238303296703,-9.361538461538512e-05,-0.000238359096459,-0.0003590219780219
-0.0002398082295482,0.0002305663003663,1.5200000000000092e-05,3.0533089133089427e-06,-0.0001276539438339,0.0001215838827838,-0.0007865333333333,-0.0004288396825396,-3.6302661782661866e-05,0.0002115057387057,5.130537240537225e-05,-0.0001146175824175
-8.195553113553141e-05,0.0006037413919413,0.0002280888888888,-0.0002605832478632,-0.0001550095482295,0.0004164188766788,-0.0010578583638583,-0.0007451317460317,8.165829059829052e-05,0.0005498578754578,0.0004073512820512,0.0002112549450549
4.554087912087884e-05,0.0008980339438339,0.0003892761904761,-0.0004696743101343,-0.0001702071062271,0.000644384078144,-0.0013932039072039,-0.0011496206349206,4.2337973137973054e-05,0.0008036219780219,0.0007271891330891,0.0005280754578754
0.0001183959706959,0.0010375953601953,0.0004561841269841,-0.0005757349938949,-0.0001671675946275,0.0007477283028083,-0.0016675775335775,-0.0014872015873015,-0.0001179679365079,0.0008519579975579,0.0008720213675213,0.0007302371184371
6.375465201465174e-05,0.000731167032967,0.0002068,-0.0003969469841269,-6.990322344322315e-05,0.0004680909890109,-0.0016889177045177,-0.0016362238095238,-0.0004506783150183,0.0004894378510378,0.0006276169719169,0.0006276476190476
-0.0001669531379731,0.0001152764346764,-0.0001703174603174,2.426544566544569e-05,5.543345543628675e-09,-2.7353382173382205e-05,-0.0014816131868131,-0.0017669984126984,-0.0009255467643467,-0.0001238253968253,0.0001478601953601,0.0003198791208791
-0.0004280172161172,-0.000185084004884,-0.0002068126984126,0.0003060838339438,-0.0001094168742368,-0.0001945278632478,-0.0012926002442002,-0.001943392063492,-0.0012733803418803,-0.0005286395604395,-0.0001508562881562,0.0001297868131868
-0.000576763028083,-0.000345883028083,-0.000222019047619,0.0004606294017094,-0.0001762861294261,-0.0002826744078144,-0.0011401704517704,-0.001864319047619,-0.0013580702564102,-0.0007008366300366,-0.0003288792429792,-3.616678876678936e-05
-0.0006314043467643,-0.0005036481074481,-0.0003284634920634,0.00056669008547,-0.00015197003663,-0.0004164139926739,-0.0010243238095238,-0.0016149349206349,-0.0012794296214896,-0.0007340676434676,-0.0004465554334554,-0.0002021203907203
-0.0006374756043956,-0.0005673609279609,-0.0003832063492063,0.0006000234432234,-0.0001276539438339,-0.0004741651770451,-0.0009359145299145,-0.0013807571428571,-0.0011523947496947,-0.0007008366300366,-0.0005008675213675,-0.0003197965811965
-0.0006314043467643,-0.0005855645909645,-0.0004075365079365,0.000606084053724,-0.0001124563858363,-0.0004954419291819,-0.0008231164835164,-0.0011709095238095,-0.0010314091575091,-0.0006585426129426,-0.0005250062271062,-0.0003982473748473
-0.0006192618315018,-0.0005825306471306,-0.0004197015873015,0.0006000234432234,-0.0001002983394383,-0.000501521001221,-0.0006950754578754,-0.0009610619047619,-0.0009134482051282,-0.0006132275946275,-0.0005370755799755,-0.0004585941391941
-0.0005919411721611,-0.0005491572649572,-0.0004105777777777,0.0005697203907203,-9.117980463980436e-05,-0.0004802442490842,-0.000585326007326,-0.0007846682539682,-0.0008045611721611,-0.0005588495726495,-0.0005250062271062,-0.0004827328449328
-0.0005797986568986,-0.0005127499389499,-0.0003923301587301,0.0005454779487179,-9.421931623931596e-05,-0.0004528884249084,-0.0005213054945054,-0.0006782238095238,-0.0007228958974358,-0.0005105135531135,-0.0005038848595848,-0.0004797155067155
-0.0005737273992673,-0.0005188178266178,-0.0003984126984126,0.0005454779487179,-8.814029304029276e-05,-0.0004589674969474,-0.0004938681318681,-0.0006326047619047,-0.0006896248595848,-0.0004954085470085,-0.0005008675213675,-0.0004827328449328
-0.0005646205128205,-0.0005400554334554,-0.0004318666666666,0.0005515385592185,-6.686371184371155e-05,-0.0004863233211233,-0.0004816737484737,-0.0006113158730158,-0.0006775263003663,-0.0004954085470085,-0.0005099195360195,-0.0004948021978021
-0.0005646205128205,-0.0005491572649572,-0.0004409904761904,0.0005545688644688,-6.078468864468836e-05,-0.0004954419291819,-0.0004786251526251,-0.0005930682539682,-0.000671477020757,-0.0004954085470085,-0.0005159542124542,-0.0005038542124542
-0.0005706917704517,-0.0005461233211233,-0.0004288253968253,0.0005575991697191,-6.990322344322315e-05,-0.0004863233211233,-0.0004694793650793,-0.0005809031746031,-0.0006654277411477,-0.0004984295482295,-0.0005159542124542,-0.0005038542124542
-0.000576763028083,-0.0005370214896214,-0.000413619047619,0.0005545688644688,-8.206126984126955e-05,-0.0004741651770451,-0.0004603335775335,-0.0005778619047619,-0.0006624031013431,-0.0005014505494505,-0.0005189715506715,-0.0005068715506715
-0.0005828342857142,-0.0005309536019536,-0.0004014539682539,0.0005545688644688,-9.117980463980436e-05,-0.0004650465689865,-0.0004572849816849,-0.0005748206349206,-0.0006563538217338,-0.0005014505494505,-0.0005219888888888,-0.0005159235653235
-0.0005858699145299,-0.0005370214896214,-0.0004075365079365,0.0005606294749694,-8.814029304029276e-05,-0.0004711256410256,-0.0004511877899877,-0.0005626555555555,-0.0006503045421245,-0.0004984295482295,-0.0005219888888888,-0.0005219582417582
-0.0005706917704517,-0.0005430893772893,-0.0004227428571428,0.0005545688644688,-7.294273504273476e-05,-0.0004832837851037,-0.0004542363858363,-0.0005535317460317,-0.0006412306227106,-0.0004954085470085,-0.0005250062271062,-0.0005249755799755
-0.0005676561416361,-0.0005430893772893,-0.0004227428571428,0.0005545688644688,-7.294273504273476e-05,-0.0004832837851037,-0.0004542363858363,-0.0005474492063492,-0.0006382059829059,-0.0004923875457875,-0.0005250062271062,-0.0005279929181929
-0.0005828342857142,-0.0005461233211233,-0.0004105777777777,0.0005636597802197,-8.510078144078116e-05,-0.0004772047130647,-0.0004450905982905,-0.0005444079365079,-0.000629132063492,-0.0004893665445665,-0.0005219888888888,-0.0005219582417582
-0.0005889055433455,-0.0005430893772893,-0.0004075365079365,0.0005636597802197,-9.117980463980436e-05,-0.0004741651770451,-0.000442042002442,-0.0005444079365079,-0.000629132063492,-0.0004923875457875,-0.0005219888888888,-0.0005219582417582
-0.0005828342857142,-0.0005430893772893,-0.000413619047619,0.0005606294749694,-8.510078144078116e-05,-0.0004772047130647,-0.0004450905982905,-0.0005413666666666,-0.0006321567032967,-0.0004954085470085,-0.0005250062271062,-0.0005249755799755
-0.000576763028083,-0.0005430893772893,-0.0004197015873015,0.0005575991697191,-7.902175824175796e-05,-0.0004802442490842,-0.0004511877899877,-0.0005383253968253,-0.0006351813431013,-0.0004954085470085,-0.0005250062271062,-0.0005279929181929
-0.000576763028083,-0.0005339875457875,-0.000413619047619,0.0005545688644688,-8.206126984126955e-05,-0.0004741651770451,-0.0004481391941391,-0.0005352841269841,-0.000629132063492,-0.0004954085470085,-0.0005250062271062,-0.0005279929181929
-0.0005828342857142,-0.0005370214896214,-0.0004075365079365,0.0005575991697191,-8.814029304029276e-05,-0.0004711256410256,-0.000442042002442,-0.0005261603174603,-0.0006230827838827,-0.0004863455433455,-0.0005189715506715,-0.0005219582417582
-0.0005797986568986,-0.0005461233211233,-0.0004197015873015,0.0005606294749694,-7.902175824175796e-05,-0.0004832837851037,-0.0004389934065934,-0.000523119047619,-0.0006200581440781,-0.0004893665445665,-0.0005250062271062,-0.0005249755799755
-0.0005706917704517,-0.0005370214896214,-0.0004166603174603,0.0005515385592185,-7.598224664224636e-05,-0.0004772047130647,-0.0004450905982905,-0.000523119047619,-0.000629132063492,-0.0004984295482295,-0.0005280235653235,-0.0005279929181929
-0.0005646205128205,-0.0005218517704517,-0.0004105777777777,0.0005424476434676,-7.598224664224636e-05,-0.0004650465689865,-0.0004572849816849,-0.0005200777777777,-0.000629132063492,-0.0004954085470085,-0.0005280235653235,-0.0005279929181929
-0.0005676561416361,-0.0005279196581196,-0.000413619047619,0.0005454779487179,-7.598224664224636e-05,-0.0004711256410256,-0.0004542363858363,-0.0005048714285714,-0.0006170335042735,-0.0004863455433455,-0.0005219888888888,-0.0005219582417582
-0.0005706917704517,-0.000558259096459,-0.0004379492063492,0.0005636597802197,-6.686371184371155e-05,-0.0004984814652014,-0.0004328962148962,-0.000489665079365,-0.0006079595848595,-0.0004803035409035,-0.0005189715506715,-0.0005189409035409
-0.0005676561416361,-0.0005673609279609,-0.0004501142857142,0.00056669008547,-5.774517704517676e-05,-0.00050760007326,-0.0004237504273504,-0.0004805412698412,-0.0006049349450549,-0.0004742615384615,-0.0005189715506715,-0.0005159235653235
-0.0005706917704517,-0.0005552251526251,-0.0004349079365079,0.0005606294749694,-6.686371184371155e-05,-0.0004954419291819,-0.000426799023199,-0.0004774999999999,-0.0006049349450549,-0.0004772825396825,-0.0005159542124542,-0.0005219582417582
-0.0005676561416361,-0.0005430893772893,-0.0004288253968253,0.0005545688644688,-6.990322344322315e-05,-0.0004863233211233,-0.0004328962148962,-0.0004714174603174,-0.0006049349450549,-0.0004772825396825,-0.0005189715506715,-0.0005249755799755
-0.0005646205128205,-0.0005339875457875,-0.0004227428571428,0.0005485082539682,-6.990322344322315e-05,-0.0004772047130647,-0.0004359448107448,-0.0004653349206349,-0.0006049349450549,-0.0004772825396825,-0.0005189715506715,-0.0005279929181929
-0.0005646205128205,-0.0005370214896214,-0.0004257841269841,0.0005485082539682,-6.990322344322315e-05,-0.0004802442490842,-0.000426799023199,-0.0004562111111111,-0.000595861025641,-0.0004742615384615,-0.0005219888888888,-0.0005279929181929
-0.0005676561416361,-0.0005309536019536,-0.0004227428571428,0.0005485082539682,-7.294273504273476e-05,-0.0004772047130647,-0.0004237504273504,-0.0004470873015873,-0.000595861025641,-0.0004742615384615,-0.0005219888888888,-0.0005249755799755
-0.0005646205128205,-0.0005370214896214,-0.0004227428571428,0.0005485082539682,-6.990322344322315e-05,-0.0004802442490842,-0.0004176532356532,-0.0004349222222222,-0.0005928363858363,-0.0004742615384615,-0.0005219888888888,-0.0005219582417582
-0.0005615848840048,-0.0005430893772893,-0.0004318666666666,0.0005515385592185,-6.382420024419996e-05,-0.0004863233211233,-0.0004176532356532,-0.0004227571428571,-0.0005867871062271,-0.0004742615384615,-0.0005219888888888,-0.0005249755799755
-0.0005555136263736,-0.0005370214896214,-0.0004318666666666,0.0005454779487179,-6.078468864468836e-05,-0.0004832837851037,-0.0004207018315018,-0.0004166746031746,-0.0005837624664224,-0.0004712405372405,-0.0005219888888888,-0.0005219582417582
-0.0005585492551892,-0.0005370214896214,-0.0004257841269841,0.0005454779487179,-6.686371184371155e-05,-0.0004802442490842,-0.0004176532356532,-0.0004075507936507,-0.0005777131868131,-0.0004682195360195,-0.0005189715506715,-0.0005249755799755
-0.0005615848840048,-0.0005370214896214,-0.0004288253968253,0.0005485082539682,-6.686371184371155e-05,-0.0004832837851037,-0.0004085074481074,-0.0003953857142857,-0.0005746885470085,-0.0004682195360195,-0.0005219888888888,-0.0005249755799755
-0.0005524779975579,-0.0005400554334554,-0.0004349079365079,0.0005454779487179,-5.774517704517676e-05,-0.0004863233211233,-0.0004085074481074,-0.0003862619047619,-0.0005716639072039,-0.0004682195360195,-0.0005219888888888,-0.0005310102564102
-0.0005494423687423,-0.0005370214896214,-0.0004379492063492,0.0005424476434676,-5.470566544566516e-05,-0.0004863233211233,-0.0004085074481074,-0.0003740968253968,-0.0005625899877899,-0.0004651985347985,-0.0005219888888888,-0.0005310102564102
-0.0005585492551892,-0.0005400554334554,-0.0004318666666666,0.0005485082539682,-6.382420024419996e-05,-0.0004863233211233,-0.000396313064713,-0.0003528079365079,-0.000553516068376,-0.0004591565323565,-0.0005159542124542,-0.0005249755799755
-0.0005464067399267,-0.0005279196581196,-0.0004318666666666,0.000536387032967,-5.774517704517676e-05,-0.0004802442490842,-0.0003993616605616,-0.0003406428571428,-0.0005565407081807,-0.0004651985347985,-0.0005189715506715,-0.0005219582417582
-0.0005342642246642,-0.0005157838827838,-0.0004318666666666,0.0005242658119658,-5.166615384615356e-05,-0.0004741651770451,-0.0004024102564102,-0.0003345603174603,-0.000553516068376,-0.0004651985347985,-0.0005219888888888,-0.0005249755799755
-0.0005342642246642,-0.0005127499389499,-0.0004288253968253,0.0005212355067155,-5.166615384615356e-05,-0.0004711256410256,-0.0003993616605616,-0.0003102301587301,-0.0005353682295482,-0.0004500935286935,-0.0005129368742368,-0.0005189409035409
-0.0005312285958485,-0.0005218517704517,-0.0004409904761904,0.0005242658119658,-4.558713064713037e-05,-0.0004802442490842,-0.0003932644688644,-0.0002828587301587,-0.000520245030525,-0.0004440515262515,-0.0005069021978021,-0.0005129062271062
-0.000519086080586,-0.0005188178266178,-0.000447073015873,0.0005182052014652,-3.6468595848595565e-05,-0.0004832837851037,-0.0003902158730158,-0.0002615698412698,-0.0005172203907203,-0.0004440515262515,-0.0005099195360195,-0.0005189409035409
-0.0005251573382173,-0.0005036481074481,-0.0004318666666666,0.0005121445909645,-4.558713064713037e-05,-0.0004680861050061,-0.0003871672771672,-0.0002463634920634,-0.0005141957509157,-0.0004440515262515,-0.0005099195360195,-0.0005189409035409
-0.0005221217094017,-0.0004975802197802,-0.0004288253968253,0.0005091142857142,-4.558713064713037e-05,-0.000462007032967,-0.00038107008547,-0.0002311571428571,-0.0005051218315018,-0.0004410305250305,-0.0005069021978021,-0.0005159235653235
-0.000519086080586,-0.0005036481074481,-0.0004379492063492,0.0005091142857142,-3.950810744810717e-05,-0.0004711256410256,-0.0003719242979242,-0.0002007444444444,-0.0004869739926739,-0.0004259255189255,-0.0004948328449328,-0.0005008368742368
-0.0005130148229548,-0.0005006141636141,-0.0004379492063492,0.0005060839804639,-3.6468595848595565e-05,-0.0004680861050061,-0.0003719242979242,-0.0001764142857142,-0.00047790007326,-0.0004138415140415,-0.0004827634920634,-0.0004857501831501
-0.0005069435653235,-0.0004854444444444,-0.0004318666666666,0.0004939627594627,-3.6468595848595565e-05,-0.0004589674969474,-0.0003688757020757,-0.0001490428571428,-0.0004688261538461,-0.0004047785103785,-0.0004706941391941,-0.0004766981684981
-0.0005008723076923,-0.0004702747252747,-0.0004197015873015,0.0004848718437118,-3.950810744810717e-05,-0.0004437698168498,-0.0003719242979242,-0.0001307952380952,-0.0004658015140415,-0.0004047785103785,-0.0004706941391941,-0.0004797155067155
-0.0004887297924297,-0.0004429692307692,-0.0004105777777777,0.0004636597069597,-3.950810744810717e-05,-0.0004255326007326,-0.0003780214896214,-0.0001125476190476,-0.0004627768742368,-0.0004077995115995,-0.0004767288156288,-0.0004857501831501
-0.0004796229059829,-0.0004186976800976,-0.0003923301587301,0.0004485081807081,-4.254761904761877e-05,-0.0004042558485958,-0.0003780214896214,-9.429999999999968e-05,-0.0004537029548229,-0.0004047785103785,-0.0004706941391941,-0.0004797155067155
-0.0004856941636141,-0.0004035279609279,-0.0003740825396825,0.0004424475702075,-5.470566544566516e-05,-0.0003890581684981,-0.0003658271062271,-7.30111111111108e-05,-0.0004355551159951,-0.0003896735042735,-0.0004556074481074,-0.0004616114774114
-0.0004856941636141,-0.0004035279609279,-0.0003710412698412,0.0004424475702075,-5.774517704517676e-05,-0.0003860186324786,-0.0003566813186813,-5.78047619047616e-05,-0.0004264811965811,-0.0003775894993894,-0.0004405207570207,-0.0004465247863247
-0.000470516019536,-0.0003944261294261,-0.0003771238095238,0.0004303263492063,-4.558713064713037e-05,-0.0003860186324786,-0.0003566813186813,-4.563968253968224e-05,-0.0004174072771672,-0.0003685264957264,-0.0004284514041514,-0.0004284207570207
-0.0004674803907203,-0.0003822903540903,-0.0003649587301587,0.0004242657387057,-5.166615384615356e-05,-0.0003738604884004,-0.0003597299145299,-3.651587301587271e-05,-0.0004174072771672,-0.0003655054945054,-0.000416382051282,-0.000413334065934
-0.0004644447619047,-0.0003610527472527,-0.0003436698412698,0.0004121445177045,-6.078468864468836e-05,-0.0003525837362637,-0.0003658271062271,-3.043333333333303e-05,-0.0004113579975579,-0.0003594634920634,-0.00040733003663,-0.0004012647130647
-0.0004614091330891,-0.0003398151404151,-0.0003284634920634,0.0004000232967032,-6.686371184371155e-05,-0.0003343465201465,-0.0003688757020757,-2.7392063492063188e-05,-0.0004053087179487,-0.0003534214896214,-0.0004043126984126,-0.0003922126984126
-0.0004553378754578,-0.0003276793650793,-0.0003193396825396,0.0003909323809523,-6.686371184371155e-05,-0.0003221883760683,-0.0003749728937728,-2.7392063492063188e-05,-0.000402284078144,-0.0003504004884004,-0.000398278021978,-0.0003891953601953
-0.0004523022466422,-0.0003216114774114,-0.0003162984126984,0.0003848717704517,-6.686371184371155e-05,-0.0003191488400488,-0.0003749728937728,-3.3474603174602874e-05,-0.0003992594383394,-0.0003413374847374,-0.0003922433455433,-0.0003831606837606
-0.0004523022466422,-0.0003125096459096,-0.0003102158730158,0.0003818414652014,-6.990322344322315e-05,-0.0003100302319902,-0.0003780214896214,-4.563968253968224e-05,-0.000402284078144,-0.0003383164835164,-0.0003831913308913,-0.0003710913308913
-0.0004523022466422,-0.0002973399267399,-0.0002980507936507,0.0003727505494505,-7.598224664224636e-05,-0.000297872087912,-0.0003871672771672,-6.388730158730128e-05,-0.0004053087179487,-0.0003352954822954,-0.0003711219780219,-0.0003499699633699
-0.0004492666178266,-0.0002791362637362,-0.0002828444444444,0.0003636596336996,-8.206126984126955e-05,-0.0002796348717948,-0.0004024102564102,-9.429999999999968e-05,-0.0004174072771672,-0.0003322744810744,-0.0003560352869352,-0.0003348832722832
-0.0004553378754578,-0.0002670004884004,-0.0002645968253968,0.0003606293284493,-9.421931623931596e-05,-0.0002644371916971,-0.0004176532356532,-0.0001338365079365,-0.0004264811965811,-0.0003383164835164,-0.0003560352869352,-0.0003288485958485
-0.0004644447619047,-0.0002700344322344,-0.0002615555555555,0.0003666899389499,-0.0001002983394383,-0.0002644371916971,-0.0004237504273504,-0.0001764142857142,-0.0004416043956043,-0.0003443584859584,-0.0003590526251526,-0.0003288485958485
-0.000470516019536,-0.0002761023199023,-0.0002615555555555,0.0003727505494505,-0.0001033378510378,-0.0002674767277167,-0.000426799023199,-0.0002220333333333,-0.0004537029548229,-0.0003473794871794,-0.0003620699633699,-0.0003258312576312
-0.0004765872771672,-0.0002821702075702,-0.0002585142857142,0.0003788111599511,-0.0001094168742368,-0.0002705162637362,-0.0004328962148962,-0.0002706936507936,-0.0004658015140415,-0.0003504004884004,-0.0003620699633699,-0.0003258312576312
-0.0004826585347985,-0.000291272039072,-0.0002615555555555,0.0003848717704517,-0.0001094168742368,-0.0002765953357753,-0.0004450905982905,-0.0003193539682539,-0.0004809247130647,-0.0003594634920634,-0.0003620699633699,-0.0003318659340659
-0.0004887297924297,-0.0003094757020757,-0.0002706793650793,0.0003969929914529,-0.0001094168742368,-0.0002887534798534,-0.0004572849816849,-0.000364973015873,-0.0005051218315018,-0.0003745684981684,-0.0003741393162393,-0.0003439352869352
-0.0005008723076923,-0.0003337472527472,-0.0002798031746031,0.0004151748229548,-0.0001094168742368,-0.0003069906959706,-0.0004603335775335,-0.0004045095238095,-0.0005232696703296,-0.0003926945054945,-0.0003922433455433,-0.0003650566544566
-0.0005251573382173,-0.0003610527472527,-0.0002858857142857,0.0004424475702075,-0.0001185354090354,-0.0003221883760683,-0.0004511877899877,-0.0004410047619047,-0.0005383928693528,-0.0004047785103785,-0.00040733003663,-0.000377126007326
-0.0005342642246642,-0.0003883582417582,-0.0003071746031746,0.0004606294017094,-0.0001124563858363,-0.0003465046642246,-0.0004542363858363,-0.0004714174603174,-0.0005565407081807,-0.0004198835164835,-0.000425434065934,-0.0003982473748473
-0.0005403354822954,-0.0004186976800976,-0.0003284634920634,0.0004788112332112,-0.0001063773626373,-0.0003738604884004,-0.0004603335775335,-0.0005018301587301,-0.0005777131868131,-0.0004349885225885,-0.000443538095238,-0.0004163514041514
-0.0005403354822954,-0.0004460031746031,-0.0003527936507936,0.0004909324542124,-9.421931623931596e-05,-0.0003981767765567,-0.0004664307692307,-0.0005352841269841,-0.0005988856654456,-0.0004531145299145,-0.0004586247863247,-0.0004374727716727
-0.0005342642246642,-0.0004642068376068,-0.000380165079365,0.000496993064713,-7.598224664224636e-05,-0.000422493064713,-0.0004755765567765,-0.000568738095238,-0.000629132063492,-0.0004742615384615,-0.0004827634920634,-0.0004676461538461
-0.0005494423687423,-0.0004763426129426,-0.0003771238095238,0.0005121445909645,-8.510078144078116e-05,-0.0004255326007326,-0.0004755765567765,-0.0005930682539682,-0.0006442552625152,-0.0004923875457875,-0.0005008675213675,-0.0004857501831501
-0.0005615848840048,-0.0004884783882783,-0.000380165079365,0.0005242658119658,-9.117980463980436e-05,-0.0004346512087912,-0.0004755765567765,-0.0006082746031746,-0.0006533291819291,-0.0004984295482295,-0.0005129368742368,-0.0004978195360195
-0.0005646205128205,-0.0005248857142857,-0.000413619047619,0.0005424476434676,-7.598224664224636e-05,-0.0004680861050061,-0.0004664307692307,-0.0006143571428571,-0.0006533291819291,-0.0005014505494505,-0.0005219888888888,-0.0005068715506715
-0.0005737273992673,-0.0005643269841269,-0.0004409904761904,0.00056669008547,-6.686371184371155e-05,-0.000501521001221,-0.0004603335775335,-0.0006234809523809,-0.0006563538217338,-0.0005074925518925,-0.0005310409035409,-0.0005189409035409
-0.0005889055433455,-0.0005764627594627,-0.0004379492063492,0.0005818416117216,-7.598224664224636e-05,-0.00050760007326,-0.0004572849816849,-0.000635646031746,-0.0006684523809523,-0.0005135345543345,-0.0005340582417582,-0.0005249755799755
-0.0005949768009768,-0.0005673609279609,-0.0004257841269841,0.0005788113064713,-8.510078144078116e-05,-0.0004954419291819,-0.0004572849816849,-0.0006386873015873,-0.0006775263003663,-0.0005165555555555,-0.0005340582417582,-0.0005219582417582
-0.0005949768009768,-0.0005673609279609,-0.0004257841269841,0.0005788113064713,-8.510078144078116e-05,-0.0004954419291819,-0.0004633821733821,-0.0006447698412698,-0.0006835755799755,-0.0005286395604395,-0.0005400929181929,-0.0005249755799755
-0.0005797986568986,-0.0005885985347985,-0.000459238095238,0.0005818416117216,-6.078468864468836e-05,-0.0005227977533577,-0.0004694793650793,-0.0006508523809523,-0.0006956741391941,-0.0005377025641025,-0.0005551796092796,-0.0005400622710622
-0.0005676561416361,-0.0005977003663003,-0.0004805269841269,0.0005818416117216,-4.254761904761877e-05,-0.0005379954334554,-0.0004694793650793,-0.0006538936507936,-0.0007017234188034,-0.0005467655677655,-0.0005612142857142,-0.0005521316239316
-0.0005828342857142,-0.0005977003663003,-0.0004714031746031,0.0005879022222222,-5.470566544566516e-05,-0.0005349558974358,-0.0004694793650793,-0.0006569349206349,-0.0006986987789987,-0.0005497865689865,-0.0005642316239316,-0.0005551489621489
-0.0005949768009768,-0.0006007343101343,-0.0004622793650793,0.0005969931379731,-6.686371184371155e-05,-0.0005319163614163,-0.0004633821733821,-0.0006599761904761,-0.0006986987789987,-0.0005497865689865,-0.0005672489621489,-0.0005581663003663
-0.000601048058608,-0.0006098361416361,-0.0004622793650793,0.0006030537484737,-6.990322344322315e-05,-0.0005349558974358,-0.0004572849816849,-0.0006569349206349,-0.0006986987789987,-0.0005497865689865,-0.0005702663003663,-0.0005581663003663
-0.0005919411721611,-0.000615904029304,-0.0004714031746031,0.0006030537484737,-6.078468864468836e-05,-0.0005440745054945,-0.0004572849816849,-0.0006569349206349,-0.0007017234188034,-0.0005558285714285,-0.0005763009768009,-0.0005672183150183
-0.0005919411721611,-0.000615904029304,-0.0004714031746031,0.0006030537484737,-6.078468864468836e-05,-0.0005440745054945,-0.0004572849816849,-0.0006569349206349,-0.0007017234188034,-0.0005558285714285,-0.0005793183150183,-0.0005702356532356
-0.000601048058608,-0.0006189379731379,-0.0004653206349206,0.0006091143589743,-6.686371184371155e-05,-0.0005410349694749,-0.0004572849816849,-0.0006599761904761,-0.0007077726984126,-0.0005588495726495,-0.0005793183150183,-0.0005672183150183
-0.0006071193162393,-0.0006189379731379,-0.0004622793650793,0.0006121446642246,-7.294273504273476e-05,-0.0005410349694749,-0.0004542363858363,-0.0006569349206349,-0.000704748058608,-0.0005588495726495,-0.0005793183150183,-0.0005642009768009
-0.0006071193162393,-0.0006189379731379,-0.0004653206349206,0.0006121446642246,-6.990322344322315e-05,-0.0005410349694749,-0.0004481391941391,-0.0006478111111111,-0.0006956741391941,-0.0005497865689865,-0.0005702663003663,-0.0005551489621489
-0.0006071193162393,-0.0006219719169719,-0.0004714031746031,0.0006121446642246,-6.686371184371155e-05,-0.000547114041514,-0.0004511877899877,-0.0006417285714285,-0.0006926494993894,-0.0005497865689865,-0.0005702663003663,-0.0005521316239316
-0.0006101549450549,-0.0006341076923076,-0.0004714031746031,0.0006212355799755,-6.990322344322315e-05,-0.0005531931135531,-0.0004511877899877,-0.0006386873015873,-0.0006926494993894,-0.0005497865689865,-0.0005732836385836,-0.0005611836385836
-0.0006071193162393,-0.0006310737484737,-0.0004714031746031,0.0006182052747252,-6.686371184371155e-05,-0.0005501535775335,-0.0004481391941391,-0.0006386873015873,-0.0006956741391941,-0.0005588495726495,-0.0005823356532356,-0.0005732529914529
-0.0005980124297924,-0.0006219719169719,-0.0004774857142857,0.0006091143589743,-6.078468864468836e-05,-0.0005501535775335,-0.0004450905982905,-0.0006386873015873,-0.0006956741391941,-0.0005618705738705,-0.0005883703296703,-0.0005762703296703
-0.0005919411721611,-0.0006219719169719,-0.0004805269841269,0.000606084053724,-5.470566544566516e-05,-0.0005501535775335,-0.0004450905982905,-0.0006386873015873,-0.0006926494993894,-0.0005618705738705,-0.0005913876678876,-0.0005792876678876
-0.0005919411721611,-0.0006280398046398,-0.0004835682539682,0.0006091143589743,-5.470566544566516e-05,-0.0005562326495726,-0.0004481391941391,-0.0006295634920634,-0.0006896248595848,-0.0005558285714285,-0.0005853529914529,-0.0005762703296703
-0.0005980124297924,-0.0006310737484737,-0.0004835682539682,0.0006121446642246,-5.774517704517676e-05,-0.0005562326495726,-0.0004450905982905,-0.0006204396825396,-0.0006866002197802,-0.0005588495726495,-0.0005853529914529,-0.0005762703296703
-0.0005949768009768,-0.0006250058608058,-0.0004835682539682,0.0006091143589743,-5.470566544566516e-05,-0.0005531931135531,-0.0004481391941391,-0.0006234809523809,-0.0006926494993894,-0.0005618705738705,-0.0005883703296703,-0.0005792876678876
-0.0005919411721611,-0.0006219719169719,-0.0004774857142857,0.000606084053724,-5.774517704517676e-05,-0.0005501535775335,-0.0004450905982905,-0.0006204396825396,-0.0006866002197802,-0.0005588495726495,-0.0005883703296703,-0.0005792876678876
-0.0005980124297924,-0.0006250058608058,-0.0004744444444444,0.0006091143589743,-6.078468864468836e-05,-0.0005501535775335,-0.0004389934065934,-0.0006143571428571,-0.0006835755799755,-0.0005558285714285,-0.0005853529914529,-0.0005732529914529
-0.0006040836874236,-0.0006189379731379,-0.0004653206349206,0.0006091143589743,-6.990322344322315e-05,-0.0005410349694749,-0.0004389934065934,-0.0006143571428571,-0.0006835755799755,-0.0005528075702075,-0.0005823356532356,-0.0005702356532356
-0.0005980124297924,-0.0006219719169719,-0.0004774857142857,0.0006091143589743,-6.078468864468836e-05,-0.0005501535775335,-0.0004359448107448,-0.0006082746031746,-0.0006805509401709,-0.0005497865689865,-0.0005793183150183,-0.0005672183150183
-0.0005949768009768,-0.0006341076923076,-0.0004866095238095,0.0006121446642246,-5.470566544566516e-05,-0.0005592721855921,-0.0004328962148962,-0.0006052333333333,-0.0006775263003663,-0.0005437445665445,-0.0005763009768009,-0.0005672183150183
-0.0005919411721611,-0.0006280398046398,-0.0004866095238095,0.0006091143589743,-5.166615384615356e-05,-0.0005562326495726,-0.0004389934065934,-0.0006082746031746,-0.0006805509401709,-0.0005437445665445,-0.0005763009768009,-0.0005672183150183
-0.0005919411721611,-0.00061287008547,-0.0004714031746031,0.0006000234432234,-6.078468864468836e-05,-0.0005410349694749,-0.000442042002442,-0.0006113158730158,-0.0006805509401709,-0.0005407235653235,-0.0005732836385836,-0.0005642009768009
-0.0006071193162393,-0.0006037682539682,-0.000447073015873,0.0006030537484737,-7.902175824175796e-05,-0.0005258372893772,-0.000442042002442,-0.0006082746031746,-0.000671477020757,-0.0005377025641025,-0.0005672489621489,-0.0005611836385836
-0.0005949768009768,-0.0006007343101343,-0.0004531555555555,0.0005969931379731,-6.990322344322315e-05,-0.0005258372893772,-0.0004481391941391,-0.0006113158730158,-0.000671477020757,-0.0005407235653235,-0.0005732836385836,-0.0005702356532356
-0.0005797986568986,-0.0006068021978021,-0.0004774857142857,0.0005909325274725,-5.166615384615356e-05,-0.0005410349694749,-0.0004481391941391,-0.0006173984126984,-0.0006745016605616,-0.0005437445665445,-0.0005793183150183,-0.0005762703296703
-0.0005706917704517,-0.0006037682539682,-0.0004835682539682,0.0005848719169719,-4.254761904761877e-05,-0.0005440745054945,-0.0004481391941391,-0.0006143571428571,-0.000671477020757,-0.0005377025641025,-0.0005763009768009,-0.0005642009768009
-0.0005737273992673,-0.0005977003663003,-0.0004744444444444,0.0005848719169719,-4.862664224664196e-05,-0.0005349558974358,-0.0004511877899877,-0.0006082746031746,-0.0006684523809523,-0.0005286395604395,-0.0005612142857142,-0.0005521316239316
-0.000576763028083,-0.0005946664224664,-0.0004683619047619,0.0005848719169719,-5.470566544566516e-05,-0.0005319163614163,-0.0004542363858363,-0.0006113158730158,-0.000671477020757,-0.0005225975579975,-0.0005551796092796,-0.0005460969474969
-0.0005858699145299,-0.0005885985347985,-0.0004561968253968,0.0005848719169719,-6.382420024419996e-05,-0.0005227977533577,-0.0004542363858363,-0.0006113158730158,-0.0006684523809523,-0.0005195765567765,-0.0005461275946275,-0.0005430796092796
-0.0005828342857142,-0.0005825306471306,-0.0004531555555555,0.0005818416117216,-6.382420024419996e-05,-0.0005167186813186,-0.0004542363858363,-0.0006143571428571,-0.0006745016605616,-0.0005225975579975,-0.0005521622710622,-0.0005460969474969
-0.0005706917704517,-0.0005794967032967,-0.000459238095238,0.0005727506959706,-5.470566544566516e-05,-0.0005197582173382,-0.0004572849816849,-0.0006204396825396,-0.0006775263003663,-0.0005256185592185,-0.0005581969474969,-0.0005521316239316
-0.0005646205128205,-0.0005825306471306,-0.0004714031746031,0.0005727506959706,-4.558713064713037e-05,-0.0005258372893772,-0.0004633821733821,-0.0006173984126984,-0.0006745016605616,-0.0005256185592185,-0.0005551796092796,-0.0005491142857142
-0.0005676561416361,-0.0005885985347985,-0.0004744444444444,0.000575781001221,-4.558713064713037e-05,-0.0005319163614163,-0.0004664307692307,-0.0006173984126984,-0.0006745016605616,-0.0005225975579975,-0.0005551796092796,-0.0005460969474969
-0.0005737273992673,-0.0005855645909645,-0.0004622793650793,0.0005788113064713,-5.470566544566516e-05,-0.0005227977533577,-0.0004664307692307,-0.0006234809523809,-0.0006775263003663,-0.0005225975579975,-0.0005521622710622,-0.0005430796092796
-0.0005797986568986,-0.0005764627594627,-0.0004501142857142,0.000575781001221,-6.382420024419996e-05,-0.0005136791452991,-0.0004633821733821,-0.0006265222222222,-0.0006775263003663,-0.0005225975579975,-0.0005461275946275,-0.0005400622710622
-0.0005797986568986,-0.0005734288156288,-0.000447073015873,0.000575781001221,-6.686371184371155e-05,-0.0005106396092796,-0.0004633821733821,-0.0006295634920634,-0.0006775263003663,-0.0005225975579975,-0.0005491449328449,-0.0005400622710622
-0.0005828342857142,-0.0005734288156288,-0.000447073015873,0.000575781001221,-6.686371184371155e-05,-0.0005106396092796,-0.0004633821733821,-0.0006295634920634,-0.0006775263003663,-0.0005225975579975,-0.0005491449328449,-0.0005400622710622
-0.0005797986568986,-0.0005764627594627,-0.0004531555555555,0.000575781001221,-6.382420024419996e-05,-0.0005136791452991,-0.0004633821733821,-0.0006326047619047,-0.0006805509401709,-0.0005225975579975,-0.0005491449328449,-0.0005430796092796
-0.000576763028083,-0.0005855645909645,-0.0004653206349206,0.0005788113064713,-5.470566544566516e-05,-0.0005258372893772,-0.0004633821733821,-0.0006326047619047,-0.0006866002197802,-0.0005256185592185,-0.0005551796092796,-0.0005491142857142
-0.0005797986568986,-0.0005855645909645,-0.0004561968253968,0.0005818416117216,-6.078468864468836e-05,-0.0005197582173382,-0.0004572849816849,-0.000635646031746,-0.0006866002197802,-0.0005256185592185,-0.0005521622710622,-0.0005460969474969
-0.0005858699145299,-0.0005825306471306,-0.0004501142857142,0.0005818416117216,-6.686371184371155e-05,-0.0005167186813186,-0.0004603335775335,-0.0006417285714285,-0.0006866002197802,-0.0005195765567765,-0.0005461275946275,-0.0005400622710622
-0.0005858699145299,-0.0005855645909645,-0.000447073015873,0.0005848719169719,-6.990322344322315e-05,-0.0005167186813186,-0.0004664307692307,-0.0006417285714285,-0.0006866002197802,-0.0005165555555555,-0.0005461275946275,-0.0005400622710622
-0.000576763028083,-0.0005794967032967,-0.0004531555555555,0.000575781001221,-6.078468864468836e-05,-0.0005167186813186,-0.0004755765567765,-0.0006447698412698,-0.0006956741391941,-0.0005225975579975,-0.0005491449328449,-0.0005430796092796
-0.000576763028083,-0.0005794967032967,-0.0004561968253968,0.000575781001221,-6.078468864468836e-05,-0.0005167186813186,-0.0004755765567765,-0.0006508523809523,-0.0007017234188034,-0.0005316605616605,-0.0005551796092796,-0.0005521316239316
-0.0005858699145299,-0.0005855645909645,-0.0004501142857142,0.0005848719169719,-6.686371184371155e-05,-0.0005167186813186,-0.0004664307692307,-0.0006478111111111,-0.0007017234188034,-0.0005316605616605,-0.0005612142857142,-0.0005521316239316
-0.0005797986568986,-0.0005916324786324,-0.0004622793650793,0.0005848719169719,-5.774517704517676e-05,-0.0005258372893772,-0.0004633821733821,-0.0006508523809523,-0.0007017234188034,-0.0005286395604395,-0.0005612142857142,-0.0005551489621489
-0.000576763028083,-0.0005916324786324,-0.0004653206349206,0.0005818416117216,-5.470566544566516e-05,-0.0005288768253968,-0.0004664307692307,-0.0006508523809523,-0.0006986987789987,-0.0005256185592185,-0.0005551796092796,-0.0005491142857142
-0.0005737273992673,-0.0005885985347985,-0.000459238095238,0.0005788113064713,-5.774517704517676e-05,-0.0005227977533577,-0.0004694793650793,-0.0006508523809523,-0.0006986987789987,-0.0005256185592185,-0.0005521622710622,-0.0005491142857142
-0.0005706917704517,-0.0005885985347985,-0.0004653206349206,0.0005788113064713,-5.166615384615356e-05,-0.0005258372893772,-0.0004725279609279,-0.0006538936507936,-0.0007017234188034,-0.0005316605616605,-0.0005581969474969,-0.0005551489621489
-0.0005706917704517,-0.0005916324786324,-0.0004744444444444,0.0005788113064713,-4.862664224664196e-05,-0.0005319163614163,-0.0004664307692307,-0.0006569349206349,-0.0007017234188034,-0.0005346815628815,-0.0005642316239316,-0.0005581663003663
-0.0005737273992673,-0.0005946664224664,-0.0004714031746031,0.0005818416117216,-5.166615384615356e-05,-0.0005319163614163,-0.0004664307692307,-0.0006599761904761,-0.0007077726984126,-0.0005377025641025,-0.0005672489621489,-0.0005611836385836
-0.000576763028083,-0.0005916324786324,-0.0004653206349206,0.0005818416117216,-5.470566544566516e-05,-0.0005288768253968,-0.0004664307692307,-0.0006630174603174,-0.0007107973382173,-0.0005407235653235,-0.0005642316239316,-0.0005611836385836
-0.0005797986568986,-0.0005825306471306,-0.0004561968253968,0.0005788113064713,-6.078468864468836e-05,-0.0005197582173382,-0.0004725279609279,-0.0006660587301587,-0.0007138219780219,-0.0005377025641025,-0.0005612142857142,-0.0005521316239316
-0.000576763028083,-0.0005825306471306,-0.000459238095238,0.0005788113064713,-5.774517704517676e-05,-0.0005197582173382,-0.0004725279609279,-0.0006630174603174,-0.0007138219780219,-0.0005346815628815,-0.0005581969474969,-0.0005491142857142
-0.0005828342857142,-0.0005977003663003,-0.0004653206349206,0.0005879022222222,-5.774517704517676e-05,-0.0005319163614163,-0.0004664307692307,-0.0006599761904761,-0.0007077726984126,-0.0005346815628815,-0.0005581969474969,-0.0005491142857142
-0.0005889055433455,-0.0006007343101343,-0.0004653206349206,0.0005939628327228,-6.078468864468836e-05,-0.0005319163614163,-0.0004633821733821,-0.0006599761904761,-0.0007077726984126,-0.0005316605616605,-0.0005551796092796,-0.0005460969474969
-0.000576763028083,-0.0005977003663003,-0.0004683619047619,0.0005848719169719,-5.470566544566516e-05,-0.0005319163614163,-0.0004694793650793,-0.0006599761904761,-0.0007107973382173,-0.0005286395604395,-0.0005521622710622,-0.0005430796092796
-0.000576763028083,-0.0005885985347985,-0.0004653206349206,0.0005818416117216,-5.470566544566516e-05,-0.0005258372893772,-0.0004725279609279,-0.0006630174603174,-0.0007107973382173,-0.0005316605616605,-0.0005551796092796,-0.0005430796092796
-0.0005797986568986,-0.0005885985347985,-0.000459238095238,0.0005818416117216,-6.078468864468836e-05,-0.0005227977533577,-0.0004694793650793,-0.0006630174603174,-0.0007138219780219,-0.0005377025641025,-0.0005612142857142,-0.0005491142857142
-0.0005858699145299,-0.0005946664224664,-0.000459238095238,0.0005879022222222,-6.382420024419996e-05,-0.0005258372893772,-0.0004694793650793,-0.0006599761904761,-0.0007138219780219,-0.0005346815628815,-0.0005642316239316,-0.0005551489621489
-0.0005828342857142,-0.0005946664224664,-0.0004622793650793,0.0005879022222222,-6.078468864468836e-05,-0.0005288768253968,-0.0004725279609279,-0.0006630174603174,-0.0007168466178266,-0.0005377025641025,-0.0005642316239316,-0.0005551489621489
-0.0005706917704517,-0.0005916324786324,-0.0004683619047619,0.0005788113064713,-5.166615384615356e-05,-0.0005288768253968,-0.0004786251526251,-0.0006690999999999,-0.0007198712576312,-0.0005407235653235,-0.0005672489621489,-0.0005551489621489
-0.0005706917704517,-0.0005885985347985,-0.0004653206349206,0.0005788113064713,-5.166615384615356e-05,-0.0005258372893772,-0.0004786251526251,-0.0006690999999999,-0.0007168466178266,-0.0005377025641025,-0.0005642316239316,-0.0005521316239316
-0.000576763028083,-0.0005885985347985,-0.0004622793650793,0.0005818416117216,-5.774517704517676e-05,-0.0005258372893772,-0.0004725279609279,-0.0006660587301587,-0.0007138219780219,-0.0005346815628815,-0.0005581969474969,-0.0005491142857142
-0.0005858699145299,-0.0005916324786324,-0.0004622793650793,0.0005879022222222,-6.078468864468836e-05,-0.0005258372893772,-0.0004694793650793,-0.0006690999999999,-0.0007138219780219,-0.0005346815628815,-0.0005612142857142,-0.0005521316239316
-0.0005828342857142,-0.0005916324786324,-0.0004622793650793,0.0005848719169719,-6.078468864468836e-05,-0.0005258372893772,-0.0004725279609279,-0.0006690999999999,-0.0007138219780219,-0.0005316605616605,-0.0005612142857142,-0.0005521316239316
-0.000576763028083,-0.0005855645909645,-0.000459238095238,0.0005788113064713,-5.774517704517676e-05,-0.0005227977533577,-0.0004725279609279,-0.0006660587301587,-0.0007107973382173,-0.0005316605616605,-0.0005612142857142,-0.0005521316239316
-0.000576763028083,-0.0005885985347985,-0.0004622793650793,0.0005818416117216,-5.774517704517676e-05,-0.0005258372893772,-0.0004755765567765,-0.0006660587301587,-0.0007107973382173,-0.0005346815628815,-0.0005612142857142,-0.0005581663003663
-0.0005737273992673,-0.0005916324786324,-0.0004683619047619,0.0005818416117216,-5.166615384615356e-05,-0.0005288768253968,-0.0004786251526251,-0.0006690999999999,-0.0007138219780219,-0.0005407235653235,-0.0005672489621489,-0.0005581663003663
-0.0005828342857142,-0.0005946664224664,-0.0004622793650793,0.0005879022222222,-6.078468864468836e-05,-0.0005288768253968,-0.0004755765567765,-0.0006690999999999,-0.0007138219780219,-0.0005407235653235,-0.0005702663003663,-0.0005581663003663
-0.0005949768009768,-0.0005916324786324,-0.0004531555555555,0.0005909325274725,-6.990322344322315e-05,-0.0005227977533577,-0.0004725279609279,-0.0006690999999999,-0.0007138219780219,-0.0005346815628815,-0.0005672489621489,-0.0005551489621489
-0.0005858699145299,-0.0005916324786324,-0.0004622793650793,0.0005879022222222,-6.078468864468836e-05,-0.0005258372893772,-0.0004755765567765,-0.0006721412698412,-0.0007168466178266,-0.0005346815628815,-0.0005642316239316,-0.0005521316239316
-0.0005828342857142,-0.0005946664224664,-0.0004683619047619,0.0005879022222222,-5.774517704517676e-05,-0.0005319163614163,-0.0004755765567765,-0.0006721412698412,-0.0007138219780219,-0.0005377025641025,-0.0005672489621489,-0.0005551489621489
-0.0005828342857142,-0.0006007343101343,-0.0004714031746031,0.0005909325274725,-5.470566544566516e-05,-0.0005349558974358,-0.0004755765567765,-0.0006690999999999,-0.0007168466178266,-0.0005437445665445,-0.0005732836385836,-0.0005581663003663
-0.0005797986568986,-0.0005916324786324,-0.0004622793650793,0.0005848719169719,-5.774517704517676e-05,-0.0005258372893772,-0.0004786251526251,-0.0006751825396825,-0.0007198712576312,-0.0005467655677655,-0.0005732836385836,-0.0005611836385836
-0.0005797986568986,-0.0005825306471306,-0.0004501142857142,0.0005788113064713,-6.382420024419996e-05,-0.0005167186813186,-0.0004816737484737,-0.0006751825396825,-0.0007168466178266,-0.0005407235653235,-0.0005702663003663,-0.0005581663003663
-0.0005889055433455,-0.0005825306471306,-0.000447073015873,0.0005848719169719,-6.990322344322315e-05,-0.0005136791452991,-0.0004877709401709,-0.0006782238095238,-0.0007138219780219,-0.0005346815628815,-0.0005672489621489,-0.0005611836385836
-0.0005889055433455,-0.0005946664224664,-0.0004561968253968,0.0005909325274725,-6.686371184371155e-05,-0.0005258372893772,-0.0004938681318681,-0.0006782238095238,-0.0007168466178266,-0.0005407235653235,-0.0005702663003663,-0.0005611836385836
-0.0005828342857142,-0.0006037682539682,-0.0004683619047619,0.0005909325274725,-5.774517704517676e-05,-0.0005349558974358,-0.0004938681318681,-0.0006751825396825,-0.0007198712576312,-0.0005437445665445,-0.0005702663003663,-0.0005611836385836
-0.0005797986568986,-0.0006037682539682,-0.0004714031746031,0.0005909325274725,-5.470566544566516e-05,-0.0005379954334554,-0.0004877709401709,-0.0006690999999999,-0.0007168466178266,-0.0005377025641025,-0.0005642316239316,-0.0005521316239316
-0.0005797986568986,-0.0006037682539682,-0.0004714031746031,0.0005909325274725,-5.470566544566516e-05,-0.0005379954334554,-0.0004816737484737,-0.0006690999999999,-0.0007107973382173,-0.0005316605616605,-0.0005612142857142,-0.0005491142857142
-0.000576763028083,-0.0006037682539682,-0.0004774857142857,0.0005879022222222,-4.862664224664196e-05,-0.0005410349694749,-0.0004816737484737,-0.0006660587301587,-0.0007107973382173,-0.0005316605616605,-0.0005581969474969,-0.0005460969474969
-0.0005797986568986,-0.0005977003663003,-0.0004683619047619,0.0005879022222222,-5.470566544566516e-05,-0.0005319163614163,-0.0004816737484737,-0.0006660587301587,-0.0007077726984126,-0.0005316605616605,-0.0005581969474969,-0.0005460969474969
-0.0005889055433455,-0.0005885985347985,-0.0004561968253968,0.0005879022222222,-6.686371184371155e-05,-0.0005227977533577,-0.0004847223443223,-0.0006690999999999,-0.0007107973382173,-0.0005316605616605,-0.0005551796092796,-0.0005491142857142
-0.0005858699145299,-0.0005916324786324,-0.000459238095238,0.0005879022222222,-6.382420024419996e-05,-0.0005258372893772,-0.0004847223443223,-0.0006751825396825,-0.0007168466178266,-0.0005377025641025,-0.0005642316239316,-0.0005551489621489
-0.0005797986568986,-0.0005885985347985,-0.000459238095238,0.0005818416117216,-6.078468864468836e-05,-0.0005227977533577,-0.0004847223443223,-0.0006782238095238,-0.0007138219780219,-0.0005377025641025,-0.0005672489621489,-0.0005611836385836
-0.0005797986568986,-0.0005885985347985,-0.0004561968253968,0.0005818416117216,-6.078468864468836e-05,-0.0005227977533577,-0.0004847223443223,-0.0006751825396825,-0.0007107973382173,-0.0005316605616605,-0.0005612142857142,-0.0005581663003663
-0.0005858699145299,-0.0005916324786324,-0.0004561968253968,0.0005879022222222,-6.382420024419996e-05,-0.0005227977533577,-0.0004786251526251,-0.0006751825396825,-0.0007077726984126,-0.0005286395604395,-0.0005551796092796,-0.0005491142857142
-0.0005858699145299,-0.0005855645909645,-0.0004501142857142,0.0005848719169719,-6.686371184371155e-05,-0.0005167186813186,-0.0004755765567765,-0.0006721412698412,-0.000704748058608,-0.0005286395604395,-0.0005551796092796,-0.0005460969474969
-0.0005980124297924,-0.0005734288156288,-0.0004288253968253,0.0005848719169719,-8.510078144078116e-05,-0.000501521001221,-0.0004633821733821,-0.0006599761904761,-0.0006926494993894,-0.0005225975579975,-0.0005491449328449,-0.0005400622710622
-0.0005980124297924,-0.0005764627594627,-0.0004288253968253,0.0005848719169719,-8.510078144078116e-05,-0.000501521001221,-0.0004603335775335,-0.0006538936507936,-0.0006896248595848,-0.0005165555555555,-0.0005431102564102,-0.0005370449328449
-0.000576763028083,-0.0005703948717948,-0.0004440317460317,0.0005727506959706,-6.686371184371155e-05,-0.00050760007326,-0.0004664307692307,-0.0006569349206349,-0.0006926494993894,-0.0005165555555555,-0.0005491449328449,-0.0005400622710622
-0.0005615848840048,-0.0005521912087912,-0.0004409904761904,0.0005545688644688,-6.078468864468836e-05,-0.0004954419291819,-0.0004694793650793,-0.0006478111111111,-0.0006896248595848,-0.0005165555555555,-0.0005461275946275,-0.0005400622710622
-0.0005646205128205,-0.0005309536019536,-0.0004166603174603,0.0005454779487179,-7.294273504273476e-05,-0.0004741651770451,-0.0004542363858363,-0.0006386873015873,-0.0006745016605616,-0.0005105135531135,-0.0005370755799755,-0.0005340275946275
-0.0005646205128205,-0.000506682051282,-0.0003923301587301,0.0005333567277167,-8.510078144078116e-05,-0.0004498488888888,-0.000442042002442,-0.0006295634920634,-0.0006593784615384,-0.0004954085470085,-0.0005280235653235,-0.0005249755799755
-0.0005585492551892,-0.0004945462759462,-0.0003892888888888,0.0005242658119658,-8.510078144078116e-05,-0.0004407302808302,-0.0004389934065934,-0.0006173984126984,-0.0006472799023199,-0.0004833245421245,-0.0005189715506715,-0.0005159235653235
-0.0005494423687423,-0.0004915123321123,-0.0003953714285714,0.0005182052014652,-7.598224664224636e-05,-0.0004437698168498,-0.0004450905982905,-0.0006143571428571,-0.0006382059829059,-0.0004742615384615,-0.0005099195360195,-0.0005098888888888
-0.0005372998534798,-0.0004854444444444,-0.0004014539682539,0.0005091142857142,-6.686371184371155e-05,-0.0004437698168498,-0.0004511877899877,-0.0006082746031746,-0.0006321567032967,-0.0004682195360195,-0.0005038848595848,-0.0005008368742368
-0.0005221217094017,-0.0004854444444444,-0.000413619047619,0.0005030536752136,-5.470566544566516e-05,-0.0004498488888888,-0.0004755765567765,-0.0006143571428571,-0.0006412306227106,-0.0004712405372405,-0.0005069021978021,-0.0005068715506715
-0.0005221217094017,-0.0005036481074481,-0.0004318666666666,0.0005121445909645,-4.558713064713037e-05,-0.0004680861050061,-0.0005060625152625,-0.000635646031746,-0.0006624031013431,-0.0004923875457875,-0.0005219888888888,-0.0005159235653235
-0.0005372998534798,-0.0005127499389499,-0.0004288253968253,0.0005242658119658,-5.470566544566516e-05,-0.0004711256410256,-0.0005121597069597,-0.0006508523809523,-0.000671477020757,-0.0005014505494505,-0.0005250062271062,-0.0005189409035409
-0.0005403354822954,-0.0005127499389499,-0.0004227428571428,0.0005242658119658,-5.774517704517676e-05,-0.0004680861050061,-0.0005121597069597,-0.0006599761904761,-0.0006745016605616,-0.0004984295482295,-0.0005280235653235,-0.0005189409035409
-0.0005464067399267,-0.0005370214896214,-0.0004409904761904,0.0005394173382173,-5.166615384615356e-05,-0.0004893628571428,-0.0005121597069597,-0.0006721412698412,-0.0006926494993894,-0.0005105135531135,-0.0005340582417582,-0.0005219582417582
-0.0005524779975579,-0.000558259096459,-0.0004561968253968,0.0005545688644688,-4.862664224664196e-05,-0.00050760007326,-0.0005091111111111,-0.0006721412698412,-0.0006986987789987,-0.0005135345543345,-0.0005400929181929,-0.0005279929181929
-0.0005615848840048,-0.0005491572649572,-0.0004440317460317,0.0005545688644688,-5.774517704517676e-05,-0.0004954419291819,-0.0005030139194139,-0.0006660587301587,-0.0006956741391941,-0.0005074925518925,-0.0005340582417582,-0.0005249755799755
-0.0005555136263736,-0.0005430893772893,-0.0004409904761904,0.0005485082539682,-5.774517704517676e-05,-0.0004924023931623,-0.0005060625152625,-0.0006721412698412,-0.0006956741391941,-0.0005105135531135,-0.0005340582417582,-0.0005219582417582
-0.0005464067399267,-0.0005521912087912,-0.0004561968253968,0.0005485082539682,-4.558713064713037e-05,-0.0005045605372405,-0.0005091111111111,-0.0006782238095238,-0.000704748058608,-0.0005195765567765,-0.0005431102564102,-0.0005310102564102
-0.0005464067399267,-0.0005764627594627,-0.0004774857142857,0.0005606294749694,-3.342908424908396e-05,-0.0005258372893772,-0.0005091111111111,-0.0006873476190476,-0.0007198712576312,-0.0005346815628815,-0.0005581969474969,-0.0005460969474969
-0.0005524779975579,-0.0005855645909645,-0.0004805269841269,0.00056669008547,-3.6468595848595565e-05,-0.0005319163614163,-0.0005060625152625,-0.0006964714285714,-0.0007289451770451,-0.0005437445665445,-0.0005642316239316,-0.0005521316239316
-0.0005737273992673,-0.0005916324786324,-0.0004653206349206,0.0005818416117216,-5.470566544566516e-05,-0.0005288768253968,-0.0004969167277167,-0.0006995126984126,-0.0007289451770451,-0.0005407235653235,-0.0005642316239316,-0.0005460969474969
-0.0005949768009768,-0.0005885985347985,-0.000447073015873,0.0005909325274725,-7.294273504273476e-05,-0.0005167186813186,-0.0004877709401709,-0.0006964714285714,-0.0007228958974358,-0.0005346815628815,-0.0005581969474969,-0.0005400622710622
-0.000601048058608,-0.0005916324786324,-0.0004409904761904,0.0005939628327228,-7.902175824175796e-05,-0.0005167186813186,-0.0004786251526251,-0.0006964714285714,-0.0007168466178266,-0.0005346815628815,-0.0005581969474969,-0.0005430796092796
-0.0006040836874236,-0.0006068021978021,-0.0004501142857142,0.0006030537484737,-7.598224664224636e-05,-0.0005288768253968,-0.0004786251526251,-0.0006964714285714,-0.0007228958974358,-0.0005377025641025,-0.0005612142857142,-0.0005491142857142
-0.0006101549450549,-0.0006189379731379,-0.000459238095238,0.0006121446642246,-7.598224664224636e-05,-0.0005379954334554,-0.0004816737484737,-0.0007025539682539,-0.0007259205372405,-0.0005467655677655,-0.0005702663003663,-0.0005611836385836
-0.000601048058608,-0.0006189379731379,-0.0004683619047619,0.0006091143589743,-6.686371184371155e-05,-0.0005440745054945,-0.0004847223443223,-0.0007025539682539,-0.0007319698168498,-0.0005528075702075,-0.0005763009768009,-0.0005642009768009
-0.0006040836874236,-0.00061287008547,-0.0004622793650793,0.000606084053724,-6.990322344322315e-05,-0.0005379954334554,-0.0004847223443223,-0.0007025539682539,-0.0007319698168498,-0.0005558285714285,-0.0005793183150183,-0.0005672183150183
-0.0006192618315018,-0.0006068021978021,-0.0004409904761904,0.0006121446642246,-8.814029304029276e-05,-0.0005227977533577,-0.0004786251526251,-0.0006995126984126,-0.0007259205372405,-0.0005497865689865,-0.0005732836385836,-0.0005611836385836
-0.0006071193162393,-0.0006068021978021,-0.0004501142857142,0.000606084053724,-7.902175824175796e-05,-0.0005288768253968,-0.0004847223443223,-0.0006995126984126,-0.0007259205372405,-0.0005437445665445,-0.0005702663003663,-0.0005581663003663
-0.0005919411721611,-0.000615904029304,-0.0004744444444444,0.0006030537484737,-5.774517704517676e-05,-0.0005440745054945,-0.0004847223443223,-0.0006995126984126,-0.0007259205372405,-0.0005467655677655,-0.0005732836385836,-0.0005611836385836
-0.0005919411721611,-0.0006189379731379,-0.0004744444444444,0.0006030537484737,-5.774517704517676e-05,-0.000547114041514,-0.0004816737484737,-0.0006995126984126,-0.0007228958974358,-0.0005467655677655,-0.0005732836385836,-0.0005581663003663
-0.0006131905738705,-0.00061287008547,-0.000447073015873,0.0006121446642246,-8.206126984126955e-05,-0.0005288768253968,-0.0004786251526251,-0.0006964714285714,-0.0007168466178266,-0.0005407235653235,-0.0005642316239316,-0.0005521316239316
-0.0006192618315018,-0.0006007343101343,-0.0004349079365079,0.0006091143589743,-9.117980463980436e-05,-0.0005167186813186,-0.0004847223443223,-0.0006903888888888,-0.0007138219780219,-0.0005377025641025,-0.0005581969474969,-0.0005460969474969
-0.0005980124297924,-0.0005977003663003,-0.0004531555555555,0.0005969931379731,-7.294273504273476e-05,-0.0005258372893772,-0.0004969167277167,-0.0006964714285714,-0.0007168466178266,-0.0005437445665445,-0.0005642316239316,-0.0005551489621489
-0.0005828342857142,-0.0005885985347985,-0.0004561968253968,0.0005848719169719,-6.382420024419996e-05,-0.0005227977533577,-0.0004999653235653,-0.0007025539682539,-0.0007198712576312,-0.0005437445665445,-0.0005702663003663,-0.0005642009768009
-0.0005949768009768,-0.0005885985347985,-0.0004440317460317,0.0005909325274725,-7.598224664224636e-05,-0.0005167186813186,-0.0004908195360195,-0.0006995126984126,-0.0007138219780219,-0.0005316605616605,-0.0005642316239316,-0.0005581663003663
-0.000601048058608,-0.0005946664224664,-0.0004440317460317,0.0005969931379731,-7.902175824175796e-05,-0.0005197582173382,-0.0004816737484737,-0.0006751825396825,-0.0006896248595848,-0.0005256185592185,-0.0005672489621489,-0.0005611836385836
-0.0006040836874236,-0.0005703948717948,-0.000413619047619,0.0005848719169719,-9.421931623931596e-05,-0.0004924023931623,-0.0004725279609279,-0.000635646031746,-0.0006351813431013,-0.0005044715506715,-0.0005642316239316,-0.0005702356532356
-0.0005858699145299,-0.0004854444444444,-0.0003436698412698,0.0005333567277167,-0.0001215749206349,-0.0004133744566544,-0.0004816737484737,-0.0005839444444444,-0.000553516068376,-0.0004531145299145,-0.0005310409035409,-0.0005521316239316
-0.0005312285958485,-0.0003307133089133,-0.000255473015873,0.0004303263492063,-0.0001367724786324,-0.000291793015873,-0.0005152083028083,-0.0004683761904761,-0.0004143826373626,-0.0003171694749694,-0.0004284514041514,-0.0004917848595848
-0.0004189103296703,-0.0001062014652014,-0.000142946031746,0.0002606292551892,-0.0001367724786324,-0.0001246185347985,-0.0005822774114774,-0.0003406428571428,-0.0002056824908424,-8.153137973138024e-05,-0.0002443937728937,-0.0003650566544566
-0.0002701645177045,0.0002396681318681,5.4736507936508025e-05,1.5174529914529944e-05,-0.0001610885714285,0.0001459001709401,-0.0007529987789987,-0.0004470873015873,-1.2105543345543424e-05,0.0002326527472527,5.432271062271046e-05,-0.0001176349206349
-0.0001244543345543,0.0006462166056166,0.0003102031746031,-0.0002605832478632,-0.0002157997802197,0.0004772095970695,-0.001030421001221,-0.0007785857142857,0.0001058554090354,0.0005800678876678,0.0004224379731379,0.0002112549450549
1.2148962148961872e-05,0.0009617467643467,0.0004835555555555,-0.0004848258363858,-0.0002340368498168,0.000723412014652,-0.0013718637362637,-0.0011830746031746,7.25843711843711e-05,0.0008549789987789,0.0007513278388278,0.0005310927960927
9.41109401709399e-05,0.0011134439560439,0.0005535047619047,-0.0006030077411477,-0.0002279578266178,0.0008328353113553,-0.0016553831501831,-0.0015024079365079,-7.259833943833952e-05,0.000930504029304,0.0009202987789987,0.0007513584859584
4.554087912087884e-05,0.0008221853479853,0.0003162857142857,-0.0004333106471306,-0.0001337329670329,0.0005683956776556,-0.0016889177045177,-0.0016514301587301,-0.0004053087179487,0.0005800678876678,0.0006970157509157,0.0006729076923076
-0.0001821312820512,0.0001789892551892,-9.124444444444436e-05,2.300366300369205e-08,-4.558713064713037e-05,4.255594627594624e-05,-0.0014724673992673,-0.0017639571428571,-0.0009043742857142,-6.340537240537292e-05,0.0001961376068376,0.0003560871794871
-0.0004371241025641,-0.0001668803418803,-0.0001824825396825,0.0003000232234432,-0.0001276539438339,-0.0001732511111111,-0.0012743086691086,-0.0019251444444444,-0.0012885035409035,-0.0005195765567765,-0.0001387869352869,0.0001418561660561
-0.0005828342857142,-0.0003580188034188,-0.0002250603174603,0.0004697203174603,-0.0001793256410256,-0.000291793015873,-0.0011157816849816,-0.0018491126984126,-0.001385292014652,-0.0007129206349206,-0.0003409485958485,-3.616678876678936e-05
-0.0006283687179487,-0.0005127499389499,-0.0003315047619047,0.0005697203907203,-0.0001489305250305,-0.000422493064713,-0.0009968864468864,-0.0016088523809523,-0.0012945528205128,-0.0007401096459096,-0.0004616421245421,-0.0002051377289377
-0.0006435468620268,-0.0005673609279609,-0.0003740825396825,0.0006030537484737,-0.0001337329670329,-0.0004711256410256,-0.0009054285714285,-0.0013807571428571,-0.0011554193894993,-0.0006978156288156,-0.0005038848595848,-0.0003167792429792
-0.0006314043467643,-0.0005885985347985,-0.0004044952380952,0.0006091143589743,-0.0001124563858363,-0.0004954419291819,-0.0007926305250305,-0.0011648269841269,-0.0010314091575091,-0.0006525006105006,-0.0005310409035409,-0.0003982473748473
-0.0006071193162393,-0.0005855645909645,-0.0004288253968253,0.0005939628327228,-8.814029304029276e-05,-0.00050760007326,-0.0006645894993894,-0.0009488968253968,-0.0009073989255189,-0.0006011435897435,-0.0005400929181929,-0.0004555768009768
-0.000576763028083,-0.000558259096459,-0.0004318666666666,0.00056669008547,-7.294273504273476e-05,-0.0004954419291819,-0.0005578886446886,-0.0007694619047619,-0.0007954872527472,-0.0005437445665445,-0.0005280235653235,-0.0004797155067155
-0.0005676561416361,-0.0005339875457875,-0.000413619047619,0.0005485082539682,-7.598224664224636e-05,-0.0004741651770451,-0.0004969167277167,-0.0006690999999999,-0.0007168466178266,-0.0005014505494505,-0.0005129368742368,-0.0004857501831501
-0.0005737273992673,-0.0005188178266178,-0.0004014539682539,0.0005454779487179,-8.510078144078116e-05,-0.0004589674969474,-0.0004725279609279,-0.0006326047619047,-0.0006866002197802,-0.0004893665445665,-0.0005099195360195,-0.0004887675213675
-0.0005737273992673,-0.0005188178266178,-0.0003984126984126,0.0005454779487179,-8.814029304029276e-05,-0.0004589674969474,-0.0004633821733821,-0.0006204396825396,-0.0006805509401709,-0.0004954085470085,-0.0005189715506715,-0.0004978195360195
-0.0005797986568986,-0.0005248857142857,-0.0004014539682539,0.0005515385592185,-8.814029304029276e-05,-0.000462007032967,-0.0004542363858363,-0.0006052333333333,-0.0006775263003663,-0.0005014505494505,-0.0005280235653235,-0.0005098888888888
-0.000576763028083,-0.0005309536019536,-0.0004044952380952,0.0005515385592185,-8.510078144078116e-05,-0.0004680861050061,-0.0004450905982905,-0.0005900269841269,-0.000671477020757,-0.0005014505494505,-0.0005310409035409,-0.0005189409035409
-0.0005797986568986,-0.0005400554334554,-0.000413619047619,0.0005575991697191,-8.206126984126955e-05,-0.0004772047130647,-0.0004389934065934,-0.0005778619047619,-0.0006624031013431,-0.0005014505494505,-0.0005370755799755,-0.0005279929181929
-0.000576763028083,-0.0005430893772893,-0.0004197015873015,0.0005575991697191,-7.902175824175796e-05,-0.0004802442490842,-0.0004328962148962,-0.000568738095238,-0.0006593784615384,-0.0005014505494505,-0.0005400929181929,-0.0005279929181929
-0.000576763028083,-0.0005400554334554,-0.000413619047619,0.0005575991697191,-8.206126984126955e-05,-0.0004772047130647,-0.000426799023199,-0.0005596142857142,-0.0006533291819291,-0.0004954085470085,-0.0005370755799755,-0.0005249755799755
-0.0005858699145299,-0.0005400554334554,-0.0004105777777777,0.0005606294749694,-8.814029304029276e-05,-0.0004741651770451,-0.0004207018315018,-0.0005504904761904,-0.0006442552625152,-0.0004863455433455,-0.0005280235653235,-0.0005219582417582
-0.0005828342857142,-0.0005370214896214,-0.0004105777777777,0.0005575991697191,-8.510078144078116e-05,-0.0004741651770451,-0.0004237504273504,-0.0005444079365079,-0.0006412306227106,-0.0004863455433455,-0.0005250062271062,-0.0005249755799755
-0.0005676561416361,-0.0005339875457875,-0.0004197015873015,0.0005485082539682,-7.294273504273476e-05,-0.0004772047130647,-0.0004298476190476,-0.0005474492063492,-0.0006412306227106,-0.0004923875457875,-0.0005370755799755,-0.0005340275946275
-0.0005585492551892,-0.0005339875457875,-0.0004288253968253,0.0005454779487179,-6.382420024419996e-05,-0.0004802442490842,-0.0004298476190476,-0.0005444079365079,-0.0006412306227106,-0.0004954085470085,-0.0005431102564102,-0.0005400622710622
-0.0005585492551892,-0.0005309536019536,-0.0004288253968253,0.0005424476434676,-6.382420024419996e-05,-0.0004802442490842,-0.0004298476190476,-0.0005413666666666,-0.0006412306227106,-0.0004923875457875,-0.0005370755799755,-0.0005400622710622
-0.0005585492551892,-0.0005248857142857,-0.0004197015873015,0.0005394173382173,-6.990322344322315e-05,-0.0004711256410256,-0.0004328962148962,-0.0005292015873015,-0.0006351813431013,-0.0004863455433455,-0.0005310409035409,-0.0005310102564102
-0.0005676561416361,-0.0005248857142857,-0.0004105777777777,0.0005454779487179,-7.902175824175796e-05,-0.0004680861050061,-0.000426799023199,-0.0005200777777777,-0.0006261074236874,-0.0004803035409035,-0.0005250062271062,-0.0005279929181929
-0.0005676561416361,-0.0005309536019536,-0.0004166603174603,0.0005485082539682,-7.598224664224636e-05,-0.0004741651770451,-0.0004237504273504,-0.0005200777777777,-0.0006261074236874,-0.0004833245421245,-0.0005310409035409,-0.0005310102564102
-0.0005706917704517,-0.0005339875457875,-0.0004197015873015,0.0005515385592185,-7.598224664224636e-05,-0.0004772047130647,-0.0004207018315018,-0.0005139952380952,-0.0006261074236874,-0.0004833245421245,-0.0005340582417582,-0.0005340275946275
-0.0005706917704517,-0.0005309536019536,-0.0004166603174603,0.0005485082539682,-7.598224664224636e-05,-0.0004741651770451,-0.0004207018315018,-0.0005170365079365,-0.0006261074236874,-0.0004863455433455,-0.0005340582417582,-0.0005340275946275
-0.0005585492551892,-0.0005218517704517,-0.0004166603174603,0.0005394173382173,-6.990322344322315e-05,-0.0004680861050061,-0.0004237504273504,-0.0005139952380952,-0.0006230827838827,-0.0004833245421245,-0.0005370755799755,-0.0005310102564102
-0.0005615848840048,-0.0005218517704517,-0.0004105777777777,0.0005394173382173,-7.598224664224636e-05,-0.0004650465689865,-0.000426799023199,-0.0005079126984126,-0.0006170335042735,-0.0004833245421245,-0.0005370755799755,-0.0005340275946275
-0.0005646205128205,-0.0005248857142857,-0.000413619047619,0.0005424476434676,-7.598224664224636e-05,-0.0004680861050061,-0.0004237504273504,-0.0004957476190476,-0.0006140088644688,-0.0004833245421245,-0.0005370755799755,-0.0005340275946275
-0.0005555136263736,-0.0005279196581196,-0.0004227428571428,0.0005394173382173,-6.686371184371155e-05,-0.0004741651770451,-0.0004176532356532,-0.0004927063492063,-0.0006140088644688,-0.0004833245421245,-0.0005400929181929,-0.0005370449328449
-0.0005524779975579,-0.0005279196581196,-0.0004257841269841,0.0005394173382173,-6.382420024419996e-05,-0.0004772047130647,-0.000411556043956,-0.0004805412698412,-0.0006049349450549,-0.0004772825396825,-0.0005340582417582,-0.0005370449328449
-0.0005524779975579,-0.0005309536019536,-0.0004318666666666,0.0005394173382173,-6.078468864468836e-05,-0.0004802442490842,-0.000411556043956,-0.0004653349206349,-0.000595861025641,-0.0004712405372405,-0.0005340582417582,-0.0005370449328449
-0.0005494423687423,-0.0005370214896214,-0.0004349079365079,0.0005424476434676,-5.774517704517676e-05,-0.0004863233211233,-0.000411556043956,-0.0004562111111111,-0.000595861025641,-0.0004742615384615,-0.0005340582417582,-0.0005370449328449
-0.0005494423687423,-0.0005370214896214,-0.0004379492063492,0.0005424476434676,-5.470566544566516e-05,-0.0004863233211233,-0.0004085074481074,-0.0004501285714285,-0.0005928363858363,-0.0004772825396825,-0.0005340582417582,-0.0005370449328449
-0.0005403354822954,-0.0005309536019536,-0.0004409904761904,0.0005333567277167,-4.862664224664196e-05,-0.0004863233211233,-0.0004085074481074,-0.0004410047619047,-0.0005898117460317,-0.0004742615384615,-0.0005340582417582,-0.0005370449328449
-0.0005403354822954,-0.0005279196581196,-0.0004349079365079,0.0005333567277167,-5.166615384615356e-05,-0.0004802442490842,-0.0004024102564102,-0.0004349222222222,-0.0005807378266178,-0.0004682195360195,-0.0005310409035409,-0.0005340275946275
-0.0005312285958485,-0.0005248857142857,-0.0004409904761904,0.0005272961172161,-4.558713064713037e-05,-0.0004832837851037,-0.0003993616605616,-0.0004257984126984,-0.0005777131868131,-0.0004651985347985,-0.0005280235653235,-0.0005340275946275
-0.0005433711111111,-0.0005248857142857,-0.0004349079365079,0.0005333567277167,-5.470566544566516e-05,-0.0004802442490842,-0.0004024102564102,-0.0004136333333333,-0.0005746885470085,-0.0004651985347985,-0.0005310409035409,-0.0005340275946275
-0.0005646205128205,-0.0005279196581196,-0.0004166603174603,0.0005454779487179,-7.294273504273476e-05,-0.0004711256410256,-0.0003932644688644,-0.0003953857142857,-0.0005656146275946,-0.0004591565323565,-0.0005250062271062,-0.0005310102564102
-0.0005646205128205,-0.0005248857142857,-0.000413619047619,0.0005424476434676,-7.598224664224636e-05,-0.0004680861050061,-0.0003871672771672,-0.0003832206349206,-0.0005595653479853,-0.0004621775335775,-0.0005250062271062,-0.0005310102564102
-0.0005403354822954,-0.0005188178266178,-0.0004318666666666,0.0005272961172161,-5.470566544566516e-05,-0.0004741651770451,-0.0003871672771672,-0.0003801793650793,-0.0005595653479853,-0.0004621775335775,-0.0005310409035409,-0.0005370449328449
-0.0005251573382173,-0.0005097159951159,-0.0004409904761904,0.0005151748962148,-4.254761904761877e-05,-0.0004741651770451,-0.0003932644688644,-0.0003680142857142,-0.000553516068376,-0.0004591565323565,-0.0005250062271062,-0.0005340275946275
-0.0005281929670329,-0.0005127499389499,-0.0004349079365079,0.0005182052014652,-4.558713064713037e-05,-0.0004741651770451,-0.0003902158730158,-0.0003497666666666,-0.0005444421489621,-0.0004531145299145,-0.0005219888888888,-0.0005310102564102
-0.000519086080586,-0.0005127499389499,-0.0004409904761904,0.0005151748962148,-3.950810744810717e-05,-0.0004772047130647,-0.0003871672771672,-0.0003345603174603,-0.0005383928693528,-0.0004531145299145,-0.0005219888888888,-0.0005310102564102
-0.0005160504517704,-0.000506682051282,-0.0004409904761904,0.0005091142857142,-3.6468595848595565e-05,-0.0004741651770451,-0.00038107008547,-0.0003163126984126,-0.0005323435897435,-0.0004470725274725,-0.0005189715506715,-0.0005279929181929
-0.0005251573382173,-0.0005036481074481,-0.0004349079365079,0.0005121445909645,-4.558713064713037e-05,-0.0004680861050061,-0.0003719242979242,-0.0003011063492063,-0.000520245030525,-0.0004380095238095,-0.0005129368742368,-0.0005279929181929
-0.0005251573382173,-0.0005006141636141,-0.0004288253968253,0.0005121445909645,-4.862664224664196e-05,-0.0004650465689865,-0.0003658271062271,-0.0002767761904761,-0.0005081464713064,-0.0004289465201465,-0.0005069021978021,-0.0005189409035409
-0.0005221217094017,-0.0004945462759462,-0.0004288253968253,0.0005060839804639,-4.558713064713037e-05,-0.000462007032967,-0.0003658271062271,-0.000252446031746,-0.0005020971916971,-0.0004289465201465,-0.0005069021978021,-0.0005189409035409
-0.0005221217094017,-0.0004884783882783,-0.0004197015873015,0.0005030536752136,-5.166615384615356e-05,-0.0004528884249084,-0.0003627785103785,-0.0002341984126984,-0.0004930232722832,-0.0004259255189255,-0.0005008675213675,-0.0005129062271062
-0.0005039079365079,-0.0004763426129426,-0.0004197015873015,0.0004879021489621,-4.254761904761877e-05,-0.0004468093528693,-0.0003658271062271,-0.0002129095238095,-0.0004899986324786,-0.0004229045177045,-0.0005008675213675,-0.0005129062271062
-0.000494801050061,-0.0004611728937728,-0.0004166603174603,0.0004757809279609,-3.950810744810717e-05,-0.0004376907448107,-0.0003627785103785,-0.0001916206349206,-0.0004869739926739,-0.0004198835164835,-0.0005008675213675,-0.0005098888888888
-0.0004887297924297,-0.000452071062271,-0.0004105777777777,0.0004697203174603,-3.950810744810717e-05,-0.0004316116727716,-0.0003627785103785,-0.0001703317460317,-0.00047790007326,-0.0004138415140415,-0.0004948328449328,-0.0005068715506715
-0.0004796229059829,-0.0004429692307692,-0.0004166603174603,0.0004606294017094,-3.0389572649572364e-05,-0.0004285721367521,-0.0003597299145299,-0.0001460015873015,-0.0004718507936507,-0.0004108205128205,-0.0004887981684981,-0.0005038542124542
-0.0004765872771672,-0.0004399352869352,-0.000413619047619,0.000457599096459,-3.0389572649572364e-05,-0.0004255326007326,-0.0003505841269841,-0.0001186301587301,-0.0004567275946275,-0.0004047785103785,-0.0004857808302808,-0.0005008368742368
-0.000470516019536,-0.0004277995115995,-0.0004105777777777,0.0004485081807081,-3.0389572649572364e-05,-0.0004194535286935,-0.0003444869352869,-9.734126984126952e-05,-0.000444629035409,-0.0003926945054945,-0.0004767288156288,-0.0004917848595848
-0.000470516019536,-0.0004156637362637,-0.0003984126984126,0.0004424475702075,-3.6468595848595565e-05,-0.0004072953846153,-0.0003414383394383,-7.605238095238064e-05,-0.0004295058363858,-0.0003806105006105,-0.0004616421245421,-0.0004766981684981
