aVR,aVL,aVF,V4,V5,V6,V1,V2,V3,I,II,III
-309,-789,-1224,-347.0,-740.0,-1239.0,-341.0,-767.0,-1194.0,-338.0,-782.0,-1215.0
-309,-789,-1224,-364.0,-718.0,-1240.0,-341.0,-767.0,-1194.0,-338.0,-782.0,-1215.0
-308,-785,-1225,-361.0,-720.0,-1240.0,-341.0,-761.0,-1189.0,-338.0,-785.0,-1219.0
-307,-781,-1228,-359.0,-722.0,-1240.0,-341.0,-767.0,-1192.0,-338.0,-792.0,-1225.0
-305,-776,-1236,-357.0,-724.0,-1240.0,-341.0,-769.0,-1193.0,-338.0,-797.0,-1231.0
-300,-772,-1239,-356.0,-727.0,-1240.0,-341.0,-770.0,-1193.0,-338.0,-803.0,-1236.0
-305,-768,-1246,-356.0,-730.0,-1241.0,-340.0,-771.0,-1194.0,-338.0,-814.0,-1247.0
-307,-766,-1240,-355.0,-732.0,-1242.0,-340.0,-772.0,-1195.0,-337.0,-798.0,-1231.0
-312,-764,-1238,-354.0,-735.0,-1241.0,-340.0,-774.0,-1196.0,-336.0,-771.0,-1200.0
-314,-762,-1235,-354.0,-737.0,-1241.0,-340.0,-775.0,-1196.0,-336.0,-760.0,-1191.0
-316,-761,-1234,-352.0,-738.0,-1240.0,-338.0,-776.0,-1197.0,-337.0,-741.0,-1171.0
-318,-758,-1233,-352.0,-740.0,-1240.0,-340.0,-777.0,-1197.0,-340.0,-728.0,-1150.0
-320,-761,-1232,-350.0,-738.0,-1240.0,-340.0,-778.0,-1198.0,-344.0,-691.0,-1149.0
-320,-761,-1232,-349.0,-735.0,-1240.0,-340.0,-779.0,-1199.0,-349.0,-727.0,-1156.0
-321,-761,-1231,-348.0,-732.0,-1240.0,-340.0,-780.0,-1199.0,-353.0,-740.0,-1173.0
-321,-762,-1231,-346.0,-730.0,-1240.0,-340.0,-781.0,-1199.0,-356.0,-753.0,-1195.0
-322,-762,-1230,-345.0,-728.0,-1240.0,-341.0,-782.0,-1198.0,-361.0,-785.0,-1208.0
-322,-762,-1229,-354.0,-726.0,-1240.0,-342.0,-782.0,-1198.0,-365.0,-797.0,-1217.0
-322,-762,-1228,-354.0,-723.0,-1240.0,-343.0,-783.0,-1197.0,-359.0,-804.0,-1223.0
-323,-762,-1227,-354.0,-730.0,-1239.0,-344.0,-784.0,-1196.0,-355.0,-815.0,-1227.0
-323,-762,-1226,-354.0,-730.0,-1239.0,-345.0,-785.0,-1195.0,-351.0,-803.0,-1223.0
-323,-763,-1226,-354.0,-730.0,-1240.0,-347.0,-786.0,-1195.0,-348.0,-799.0,-1222.0
-324,-763,-1225,-354.0,-730.0,-1240.0,-348.0,-787.0,-1195.0,-344.0,-794.0,-1221.0
-324,-764,-1224,-354.0,-730.0,-1240.0,-350.0,-788.0,-1193.0,-341.0,-791.0,-1221.0
-325,-764,-1223,-354.0,-730.0,-1240.0,-351.0,-789.0,-1195.0,-340.0,-790.0,-1221.0
-325,-765,-1223,-354.0,-730.0,-1240.0,-353.0,-790.0,-1195.0,-340.0,-790.0,-1221.0
-326,-764,-1222,-354.0,-730.0,-1240.0,-354.0,-792.0,-1195.0,-340.0,-789.0,-1221.0
-326,-764,-1222,-354.0,-730.0,-1240.0,-355.0,-793.0,-1196.0,-339.0,-788.0,-1220.0
-327,-763,-1222,-354.0,-730.0,-1240.0,-358.0,-793.0,-1197.0,-338.0,-786.0,-1220.0
-327,-763,-1221,-354.0,-730.0,-1240.0,-355.0,-796.0,-1199.0,-337.0,-785.0,-1219.0
-328,-762,-1221,-354.0,-730.0,-1240.0,-354.0,-793.0,-1201.0,-336.0,-783.0,-1218.0
-328,-762,-1221,-354.0,-730.0,-1240.0,-353.0,-792.0,-1203.0,-335.0,-782.0,-1217.0
-329,-761,-1220,-354.0,-730.0,-1240.0,-351.0,-791.0,-1205.0,-332.0,-781.0,-1216.0
-330,-761,-1220,-354.0,-730.0,-1240.0,-349.0,-790.0,-1208.0,-334.0,-780.0,-1215.0
-330,-760,-1219,-354.0,-730.0,-1240.0,-347.0,-788.0,-1210.0,-335.0,-779.0,-1214.0
-331,-760,-1219,-354.0,-730.0,-1240.0,-344.0,-787.0,-1213.0,-336.0,-779.0,-1213.0
-332,-759,-1218,-354.0,-730.0,-1240.0,-342.0,-786.0,-1216.0,-336.0,-778.0,-1213.0
-333,-758,-1217,-354.0,-730.0,-1240.0,-338.0,-785.0,-1219.0,-337.0,-777.0,-1213.0
-334,-758,-1217,-354.0,-730.0,-1240.0,-336.0,-783.0,-1221.0,-338.0,-777.0,-1212.0
-335,-758,-1215,-354.0,-730.0,-1240.0,-334.0,-782.0,-1224.0,-337.0,-776.0,-1212.0
-336,-758,-1214,-354.0,-730.0,-1240.0,-332.0,-780.0,-1227.0,-337.0,-776.0,-1211.0
-337,-755,-1213,-354.0,-730.0,-1240.0,-331.0,-780.0,-1229.0,-336.0,-775.0,-1211.0
-338,-758,-1211,-354.0,-730.0,-1240.0,-330.0,-779.0,-1230.0,-336.0,-774.0,-1211.0
-339,-758,-1209,-354.0,-730.0,-1240.0,-329.0,-778.0,-1232.0,-336.0,-774.0,-1211.0
-341,-759,-1207,-354.0,-730.0,-1240.0,-329.0,-777.0,-1233.0,-335.0,-773.0,-1211.0
-342,-760,-1205,-354.0,-730.0,-1240.0,-328.0,-777.0,-1233.0,-334.0,-772.0,-1211.0
-343,-761,-1204,-354.0,-730.0,-1240.0,-328.0,-777.0,-1234.0,-334.0,-771.0,-1211.0
-344,-762,-1202,-354.0,-730.0,-1240.0,-328.0,-777.0,-1234.0,-333.0,-771.0,-1211.0
-345,-763,-1199,-354.0,-730.0,-1240.0,-328.0,-777.0,-1235.0,-333.0,-770.0,-1211.0
-346,-764,-1197,-354.0,-730.0,-1240.0,-328.0,-777.0,-1236.0,-332.0,-770.0,-1211.0
-346,-766,-1195,-354.0,-730.0,-1240.0,-328.0,-777.0,-1237.0,-331.0,-769.0,-1211.0
-346,-767,-1193,-354.0,-730.0,-1240.0,-326.0,-774.0,-1239.0,-331.0,-767.0,-1210.0
-347,-768,-1192,-354.0,-730.0,-1240.0,-323.0,-771.0,-1237.0,-330.0,-767.0,-1210.0
-347,-770,-1190,-354.0,-730.0,-1240.0,-316.0,-767.0,-1235.0,-329.0,-766.0,-1209.0
-347,-771,-1189,-354.0,-730.0,-1240.0,-311.0,-761.0,-1232.0,-328.0,-764.0,-1208.0
-346,-772,-1188,-354.0,-730.0,-1240.0,-307.0,-755.0,-1227.0,-327.0,-762.0,-1206.0
-346,-773,-1188,-354.0,-730.0,-1240.0,-294.0,-751.0,-1221.0,-326.0,-760.0,-1205.0
-345,-773,-1188,-354.0,-730.0,-1240.0,-302.0,-739.0,-1214.0,-326.0,-758.0,-1203.0
-345,-774,-1188,-354.0,-730.0,-1240.0,-313.0,-762.0,-1204.0,-325.0,-756.0,-1201.0
-344,-775,-1188,-354.0,-730.0,-1240.0,-322.0,-768.0,-1197.0,-325.0,-754.0,-1199.0
-343,-775,-1188,-354.0,-730.0,-1240.0,-334.0,-779.0,-1181.0,-325.0,-751.0,-1196.0
-343,-776,-1188,-354.0,-730.0,-1240.0,-350.0,-797.0,-1200.0,-323.0,-748.0,-1194.0
-342,-776,-1187,-354.0,-730.0,-1240.0,-359.0,-818.0,-1236.0,-325.0,-746.0,-1192.0
-340,-777,-1187,-354.0,-730.0,-1240.0,-370.0,-831.0,-1254.0,-325.0,-743.0,-1190.0
-342,-777,-1186,-354.0,-730.0,-1240.0,-377.0,-842.0,-1280.0,-325.0,-741.0,-1188.0
-342,-778,-1186,-354.0,-730.0,-1240.0,-371.0,-855.0,-1305.0,-325.0,-739.0,-1186.0
-343,-778,-1185,-354.0,-730.0,-1240.0,-367.0,-849.0,-1334.0,-326.0,-738.0,-1184.0
-343,-779,-1183,-354.0,-730.0,-1240.0,-362.0,-843.0,-1375.0,-326.0,-737.0,-1183.0
-343,-779,-1182,-354.0,-730.0,-1240.0,-358.0,-836.0,-1347.0,-326.0,-736.0,-1182.0
-344,-780,-1180,-354.0,-730.0,-1240.0,-353.0,-827.0,-1337.0,-327.0,-735.0,-1181.0
-345,-781,-1179,-354.0,-730.0,-1240.0,-348.0,-818.0,-1322.0,-327.0,-733.0,-1180.0
-346,-782,-1178,-354.0,-730.0,-1240.0,-343.0,-808.0,-1301.0,-328.0,-735.0,-1179.0
-347,-782,-1176,-354.0,-730.0,-1240.0,-338.0,-798.0,-1285.0,-329.0,-736.0,-1179.0
-348,-783,-1174,-354.0,-730.0,-1240.0,-336.0,-790.0,-1272.0,-329.0,-736.0,-1177.0
-348,-784,-1172,-354.0,-730.0,-1240.0,-332.0,-783.0,-1259.0,-330.0,-736.0,-1176.0
-349,-785,-1170,-354.0,-730.0,-1240.0,-330.0,-779.0,-1249.0,-331.0,-735.0,-1175.0
-350,-786,-1168,-354.0,-730.0,-1240.0,-328.0,-776.0,-1241.0,-331.0,-734.0,-1173.0
-351,-787,-1166,-354.0,-730.0,-1240.0,-327.0,-774.0,-1236.0,-332.0,-732.0,-1172.0
-352,-788,-1165,-354.0,-730.0,-1240.0,-326.0,-773.0,-1233.0,-332.0,-731.0,-1170.0
-352,-789,-1161,-354.0,-730.0,-1240.0,-325.0,-773.0,-1230.0,-333.0,-729.0,-1168.0
-353,-791,-1163,-354.0,-730.0,-1240.0,-325.0,-773.0,-1228.0,-333.0,-728.0,-1167.0
-355,-789,-1164,-354.0,-730.0,-1240.0,-324.0,-773.0,-1227.0,-333.0,-726.0,-1165.0
-353,-787,-1165,-354.0,-730.0,-1240.0,-323.0,-773.0,-1226.0,-333.0,-724.0,-1164.0
-351,-786,-1167,-354.0,-730.0,-1240.0,-321.0,-773.0,-1225.0,-334.0,-723.0,-1163.0
-350,-785,-1170,-354.0,-730.0,-1240.0,-323.0,-773.0,-1224.0,-334.0,-721.0,-1161.0
-349,-783,-1174,-354.0,-730.0,-1240.0,-324.0,-773.0,-1222.0,-334.0,-720.0,-1159.0
-346,-781,-1178,-354.0,-730.0,-1240.0,-324.0,-773.0,-1221.0,-334.0,-719.0,-1159.0
-344,-779,-1183,-354.0,-730.0,-1240.0,-325.0,-773.0,-1219.0,-334.0,-718.0,-1158.0
-341,-777,-1188,-354.0,-730.0,-1240.0,-325.0,-773.0,-1217.0,-334.0,-718.0,-1156.0
-338,-774,-1193,-354.0,-730.0,-1240.0,-325.0,-773.0,-1215.0,-334.0,-716.0,-1158.0
-335,-772,-1198,-354.0,-730.0,-1240.0,-326.0,-772.0,-1213.0,-333.0,-718.0,-1159.0
-332,-770,-1202,-354.0,-730.0,-1240.0,-326.0,-772.0,-1211.0,-332.0,-718.0,-1161.0
-329,-769,-1206,-354.0,-730.0,-1240.0,-326.0,-771.0,-1208.0,-332.0,-720.0,-1164.0
-327,-767,-1209,-354.0,-730.0,-1240.0,-326.0,-770.0,-1206.0,-332.0,-722.0,-1167.0
-325,-766,-1212,-354.0,-730.0,-1240.0,-326.0,-769.0,-1204.0,-331.0,-724.0,-1171.0
-324,-765,-1215,-354.0,-730.0,-1240.0,-327.0,-768.0,-1201.0,-329.0,-728.0,-1175.0
-323,-765,-1217,-354.0,-730.0,-1240.0,-327.0,-766.0,-1199.0,-331.0,-733.0,-1180.0
-322,-764,-1218,-354.0,-730.0,-1240.0,-327.0,-764.0,-1197.0,-332.0,-738.0,-1185.0
-321,-764,-1220,-354.0,-730.0,-1240.0,-327.0,-763.0,-1195.0,-333.0,-743.0,-1189.0
-321,-764,-1220,-354.0,-730.0,-1240.0,-328.0,-761.0,-1193.0,-334.0,-749.0,-1192.0
-321,-764,-1221,-354.0,-730.0,-1240.0,-328.0,-759.0,-1192.0,-335.0,-753.0,-1196.0
-321,-763,-1222,-354.0,-730.0,-1240.0,-329.0,-758.0,-1191.0,-335.0,-758.0,-1199.0
-320,-762,-1225,-354.0,-730.0,-1240.0,-330.0,-757.0,-1190.0,-336.0,-762.0,-1202.0
-318,-759,-1231,-354.0,-730.0,-1240.0,-331.0,-754.0,-1189.0,-336.0,-766.0,-1205.0
-315,-757,-1236,-354.0,-730.0,-1240.0,-332.0,-756.0,-1189.0,-336.0,-769.0,-1208.0
-311,-754,-1242,-354.0,-730.0,-1240.0,-333.0,-757.0,-1189.0,-337.0,-772.0,-1210.0
-308,-751,-1250,-354.0,-730.0,-1240.0,-334.0,-759.0,-1187.0,-339.0,-773.0,-1212.0
-297,-742,-1267,-354.0,-730.0,-1240.0,-335.0,-761.0,-1189.0,-337.0,-775.0,-1213.0
-308,-750,-1252,-354.0,-730.0,-1240.0,-336.0,-763.0,-1189.0,-337.0,-776.0,-1215.0
-312,-757,-1238,-354.0,-730.0,-1240.0,-336.0,-766.0,-1189.0,-336.0,-777.0,-1216.0
-326,-765,-1219,-354.0,-730.0,-1240.0,-337.0,-768.0,-1189.0,-335.0,-778.0,-1216.0
-336,-778,-1200,-354.0,-730.0,-1240.0,-338.0,-770.0,-1190.0,-331.0,-779.0,-1218.0
-343,-786,-1180,-354.0,-730.0,-1240.0,-339.0,-772.0,-1191.0,-334.0,-781.0,-1221.0
-349,-797,-1161,-354.0,-730.0,-1240.0,-340.0,-773.0,-1192.0,-335.0,-784.0,-1227.0
-346,-806,-1129,-354.0,-730.0,-1240.0,-341.0,-773.0,-1193.0,-336.0,-789.0,-1232.0
-339,-818,-1159,-354.0,-730.0,-1240.0,-341.0,-771.0,-1195.0,-337.0,-796.0,-1236.0
-329,-802,-1179,-354.0,-730.0,-1240.0,-342.0,-770.0,-1196.0,-339.0,-801.0,-1252.0
-319,-795,-1198,-354.0,-730.0,-1240.0,-342.0,-770.0,-1198.0,-343.0,-817.0,-1240.0
-309,-787,-1213,-354.0,-730.0,-1240.0,-343.0,-766.0,-1200.0,-339.0,-801.0,-1228.0
-302,-780,-1227,-354.0,-730.0,-1240.0,-343.0,-769.0,-1202.0,-337.0,-785.0,-1215.0
-294,-775,-1237,-354.0,-730.0,-1240.0,-343.0,-770.0,-1203.0,-335.0,-774.0,-1203.0
-302,-770,-1245,-354.0,-730.0,-1240.0,-343.0,-770.0,-1205.0,-331.0,-762.0,-1184.0
-305,-767,-1238,-354.0,-730.0,-1240.0,-342.0,-772.0,-1206.0,-336.0,-739.0,-1157.0
-309,-765,-1237,-354.0,-730.0,-1240.0,-342.0,-773.0,-1206.0,-340.0,-692.0,-1123.0
-313,-763,-1235,-354.0,-730.0,-1240.0,-341.0,-774.0,-1208.0,-344.0,-718.0,-1145.0
-316,-762,-1233,-354.0,-730.0,-1240.0,-340.0,-775.0,-1206.0,-350.0,-729.0,-1157.0
-318,-760,-1233,-354.0,-730.0,-1240.0,-340.0,-776.0,-1206.0,-355.0,-742.0,-1168.0
-320,-759,-1232,-354.0,-730.0,-1240.0,-339.0,-777.0,-1205.0,-360.0,-758.0,-1183.0
-321,-759,-1232,-354.0,-730.0,-1240.0,-339.0,-778.0,-1203.0,-364.0,-783.0,-1203.0
-321,-759,-1231,-354.0,-730.0,-1240.0,-338.0,-778.0,-1203.0,-369.0,-794.0,-1205.0
-322,-759,-1231,-354.0,-730.0,-1240.0,-336.0,-779.0,-1201.0,-363.0,-800.0,-1213.0
-323,-757,-1230,-354.0,-730.0,-1240.0,-338.0,-779.0,-1199.0,-360.0,-812.0,-1219.0
-324,-759,-1229,-354.0,-730.0,-1240.0,-339.0,-780.0,-1198.0,-357.0,-801.0,-1219.0
-324,-759,-1228,-354.0,-730.0,-1240.0,-339.0,-782.0,-1196.0,-354.0,-798.0,-1215.0
-325,-759,-1227,-354.0,-730.0,-1240.0,-339.0,-782.0,-1194.0,-349.0,-794.0,-1220.0
-326,-759,-1226,-354.0,-730.0,-1240.0,-340.0,-783.0,-1194.0,-344.0,-789.0,-1221.0
-327,-760,-1225,-354.0,-730.0,-1240.0,-341.0,-784.0,-1192.0,-341.0,-788.0,-1222.0
-327,-760,-1224,-354.0,-730.0,-1240.0,-342.0,-785.0,-1190.0,-338.0,-787.0,-1227.0
-328,-760,-1223,-354.0,-730.0,-1240.0,-343.0,-785.0,-1192.0,-336.0,-786.0,-1224.0
-328,-760,-1223,-354.0,-730.0,-1240.0,-344.0,-786.0,-1194.0,-334.0,-785.0,-1223.0
-329,-760,-1223,-354.0,-730.0,-1240.0,-346.0,-787.0,-1194.0,-331.0,-784.0,-1222.0
-329,-760,-1222,-354.0,-730.0,-1240.0,-347.0,-788.0,-1196.0,-334.0,-783.0,-1220.0
-330,-760,-1222,-354.0,-730.0,-1240.0,-348.0,-789.0,-1198.0,-335.0,-782.0,-1219.0
-330,-759,-1222,-354.0,-730.0,-1240.0,-351.0,-790.0,-1199.0,-336.0,-781.0,-1218.0
-331,-759,-1221,-354.0,-730.0,-1240.0,-349.0,-792.0,-1201.0,-337.0,-780.0,-1217.0
-332,-758,-1221,-354.0,-730.0,-1240.0,-348.0,-790.0,-1204.0,-340.0,-780.0,-1217.0
-333,-758,-1221,-354.0,-730.0,-1240.0,-346.0,-788.0,-1206.0,-338.0,-780.0,-1217.0
-333,-757,-1220,-354.0,-730.0,-1240.0,-345.0,-787.0,-1209.0,-337.0,-779.0,-1217.0
-334,-756,-1220,-354.0,-730.0,-1240.0,-342.0,-786.0,-1212.0,-336.0,-779.0,-1217.0
-335,-756,-1220,-354.0,-730.0,-1240.0,-339.0,-784.0,-1215.0,-335.0,-778.0,-1217.0
-336,-756,-1219,-354.0,-730.0,-1240.0,-336.0,-783.0,-1217.0,-335.0,-778.0,-1216.0
-337,-755,-1219,-354.0,-730.0,-1240.0,-333.0,-781.0,-1221.0,-335.0,-778.0,-1216.0
-338,-755,-1218,-354.0,-730.0,-1240.0,-331.0,-779.0,-1224.0,-335.0,-777.0,-1216.0
-340,-755,-1217,-354.0,-730.0,-1240.0,-328.0,-778.0,-1226.0,-335.0,-777.0,-1215.0
-341,-755,-1216,-354.0,-730.0,-1240.0,-325.0,-775.0,-1227.0,-335.0,-777.0,-1215.0
-342,-753,-1215,-354.0,-730.0,-1240.0,-323.0,-772.0,-1229.0,-335.0,-776.0,-1212.0
-344,-755,-1214,-354.0,-730.0,-1240.0,-322.0,-771.0,-1230.0,-335.0,-776.0,-1214.0
-345,-755,-1212,-354.0,-730.0,-1240.0,-321.0,-769.0,-1231.0,-334.0,-775.0,-1215.0
-346,-755,-1210,-354.0,-730.0,-1240.0,-319.0,-767.0,-1231.0,-334.0,-775.0,-1216.0
-348,-755,-1208,-354.0,-730.0,-1240.0,-319.0,-766.0,-1232.0,-332.0,-774.0,-1217.0
-349,-757,-1206,-354.0,-730.0,-1240.0,-318.0,-765.0,-1233.0,-331.0,-774.0,-1218.0
-350,-757,-1203,-354.0,-730.0,-1240.0,-317.0,-762.0,-1233.0,-330.0,-773.0,-1219.0
-351,-758,-1201,-354.0,-730.0,-1240.0,-317.0,-765.0,-1234.0,-329.0,-772.0,-1219.0
-352,-759,-1199,-354.0,-730.0,-1240.0,-317.0,-766.0,-1234.0,-328.0,-772.0,-1220.0
-354,-760,-1197,-354.0,-730.0,-1240.0,-317.0,-767.0,-1234.0,-327.0,-771.0,-1219.0
-355,-762,-1195,-354.0,-730.0,-1240.0,-315.0,-765.0,-1235.0,-326.0,-770.0,-1218.0
-355,-764,-1193,-354.0,-730.0,-1240.0,-311.0,-761.0,-1236.0,-325.0,-769.0,-1216.0
-356,-765,-1192,-354.0,-730.0,-1240.0,-307.0,-756.0,-1239.0,-325.0,-767.0,-1215.0
-358,-766,-1190,-354.0,-730.0,-1240.0,-301.0,-751.0,-1237.0,-325.0,-766.0,-1213.0
-356,-767,-1189,-354.0,-730.0,-1240.0,-297.0,-745.0,-1234.0,-325.0,-764.0,-1211.0
-355,-768,-1188,-354.0,-730.0,-1240.0,-291.0,-739.0,-1228.0,-323.0,-761.0,-1208.0
-355,-769,-1187,-354.0,-730.0,-1240.0,-281.0,-727.0,-1223.0,-325.0,-758.0,-1205.0
-354,-770,-1185,-354.0,-730.0,-1240.0,-294.0,-740.0,-1217.0,-325.0,-756.0,-1202.0
-353,-770,-1187,-354.0,-730.0,-1240.0,-313.0,-760.0,-1210.0,-325.0,-753.0,-1199.0
-353,-771,-1188,-354.0,-730.0,-1240.0,-324.0,-770.0,-1204.0,-325.0,-750.0,-1197.0
-352,-771,-1188,-354.0,-730.0,-1240.0,-334.0,-787.0,-1202.0,-325.0,-748.0,-1194.0
-352,-771,-1188,-354.0,-730.0,-1240.0,-343.0,-816.0,-1220.0,-326.0,-746.0,-1191.0
-351,-772,-1189,-354.0,-730.0,-1240.0,-361.0,-829.0,-1242.0,-326.0,-744.0,-1189.0
-350,-772,-1190,-354.0,-730.0,-1240.0,-372.0,-838.0,-1268.0,-327.0,-742.0,-1187.0
-349,-772,-1190,-354.0,-730.0,-1240.0,-366.0,-848.0,-1290.0,-328.0,-742.0,-1185.0
-348,-773,-1190,-354.0,-730.0,-1240.0,-364.0,-859.0,-1305.0,-329.0,-741.0,-1185.0
-348,-773,-1190,-354.0,-730.0,-1240.0,-360.0,-844.0,-1332.0,-329.0,-741.0,-1183.0
-348,-773,-1190,-354.0,-730.0,-1240.0,-353.0,-835.0,-1360.0,-330.0,-741.0,-1183.0
-349,-774,-1188,-354.0,-730.0,-1240.0,-348.0,-824.0,-1332.0,-331.0,-741.0,-1183.0
-349,-774,-1187,-354.0,-730.0,-1240.0,-344.0,-815.0,-1313.0,-331.0,-741.0,-1182.0
-350,-775,-1186,-354.0,-730.0,-1240.0,-337.0,-805.0,-1298.0,-332.0,-741.0,-1182.0
-351,-776,-1184,-354.0,-730.0,-1240.0,-333.0,-796.0,-1284.0,-333.0,-741.0,-1181.0
-352,-776,-1183,-354.0,-730.0,-1240.0,-329.0,-788.0,-1275.0,-333.0,-741.0,-1181.0
-353,-777,-1181,-354.0,-730.0,-1240.0,-326.0,-783.0,-1261.0,-334.0,-741.0,-1180.0
-354,-778,-1180,-354.0,-730.0,-1240.0,-324.0,-779.0,-1251.0,-334.0,-741.0,-1180.0
-355,-778,-1178,-354.0,-730.0,-1240.0,-322.0,-776.0,-1246.0,-335.0,-740.0,-1178.0
-355,-779,-1176,-354.0,-730.0,-1240.0,-321.0,-774.0,-1241.0,-335.0,-740.0,-1177.0
-356,-780,-1175,-354.0,-730.0,-1240.0,-321.0,-773.0,-1239.0,-336.0,-739.0,-1176.0
-357,-781,-1173,-354.0,-730.0,-1240.0,-319.0,-772.0,-1236.0,-336.0,-738.0,-1175.0
-358,-782,-1172,-354.0,-730.0,-1240.0,-321.0,-771.0,-1234.0,-337.0,-737.0,-1174.0
-358,-782,-1171,-354.0,-730.0,-1240.0,-321.0,-768.0,-1232.0,-337.0,-736.0,-1172.0
-361,-785,-1168,-354.0,-730.0,-1240.0,-321.0,-771.0,-1231.0,-337.0,-735.0,-1171.0
-359,-782,-1170,-354.0,-730.0,-1240.0,-322.0,-772.0,-1229.0,-337.0,-734.0,-1169.0
-358,-781,-1171,-354.0,-730.0,-1240.0,-322.0,-774.0,-1228.0,-337.0,-733.0,-1168.0
-358,-780,-1173,-354.0,-730.0,-1240.0,-322.0,-775.0,-1227.0,-337.0,-731.0,-1166.0
-357,-779,-1176,-354.0,-730.0,-1240.0,-323.0,-779.0,-1226.0,-338.0,-730.0,-1165.0
-356,-777,-1179,-354.0,-730.0,-1240.0,-324.0,-776.0,-1225.0,-339.0,-729.0,-1164.0
-353,-776,-1183,-354.0,-730.0,-1240.0,-325.0,-775.0,-1223.0,-338.0,-728.0,-1162.0
-351,-775,-1188,-354.0,-730.0,-1240.0,-326.0,-773.0,-1222.0,-338.0,-727.0,-1164.0
-348,-772,-1193,-354.0,-730.0,-1240.0,-326.0,-771.0,-1220.0,-337.0,-725.0,-1164.0
-345,-770,-1198,-354.0,-730.0,-1240.0,-327.0,-770.0,-1219.0,-337.0,-727.0,-1166.0
-341,-768,-1204,-354.0,-730.0,-1240.0,-328.0,-768.0,-1217.0,-336.0,-728.0,-1168.0
-338,-766,-1209,-354.0,-730.0,-1240.0,-328.0,-767.0,-1215.0,-335.0,-730.0,-1170.0
-336,-765,-1212,-354.0,-730.0,-1240.0,-329.0,-765.0,-1213.0,-335.0,-732.0,-1174.0
-333,-763,-1216,-354.0,-730.0,-1240.0,-330.0,-764.0,-1211.0,-332.0,-735.0,-1178.0
-331,-762,-1219,-354.0,-730.0,-1240.0,-330.0,-763.0,-1208.0,-334.0,-739.0,-1182.0
-329,-760,-1221,-354.0,-730.0,-1240.0,-331.0,-762.0,-1205.0,-335.0,-743.0,-1186.0
-328,-760,-1222,-354.0,-730.0,-1240.0,-332.0,-761.0,-1202.0,-336.0,-749.0,-1190.0
-327,-760,-1224,-354.0,-730.0,-1240.0,-333.0,-760.0,-1200.0,-336.0,-753.0,-1194.0
-327,-759,-1225,-354.0,-730.0,-1240.0,-334.0,-759.0,-1198.0,-337.0,-759.0,-1198.0
-327,-759,-1226,-354.0,-730.0,-1240.0,-335.0,-758.0,-1197.0,-338.0,-763.0,-1201.0
-326,-758,-1227,-354.0,-730.0,-1240.0,-336.0,-757.0,-1196.0,-339.0,-766.0,-1204.0
-326,-758,-1228,-354.0,-730.0,-1240.0,-338.0,-756.0,-1192.0,-340.0,-770.0,-1207.0
-325,-757,-1230,-354.0,-730.0,-1240.0,-339.0,-755.0,-1194.0,-341.0,-773.0,-1209.0
-323,-754,-1236,-354.0,-730.0,-1240.0,-340.0,-755.0,-1195.0,-343.0,-775.0,-1211.0
-320,-752,-1242,-354.0,-730.0,-1240.0,-341.0,-755.0,-1196.0,-341.0,-777.0,-1213.0
-317,-750,-1249,-354.0,-730.0,-1240.0,-341.0,-752.0,-1198.0,-340.0,-778.0,-1214.0
-312,-747,-1253,-354.0,-730.0,-1240.0,-342.0,-754.0,-1199.0,-340.0,-779.0,-1215.0
-309,-744,-1258,-354.0,-730.0,-1240.0,-342.0,-755.0,-1201.0,-340.0,-780.0,-1215.0
-300,-737,-1272,-354.0,-730.0,-1240.0,-343.0,-756.0,-1202.0,-340.0,-781.0,-1216.0
-313,-745,-1253,-354.0,-730.0,-1240.0,-343.0,-757.0,-1204.0,-340.0,-783.0,-1218.0
-322,-754,-1238,-354.0,-730.0,-1240.0,-343.0,-759.0,-1205.0,-340.0,-785.0,-1222.0
-333,-762,-1219,-354.0,-730.0,-1240.0,-343.0,-760.0,-1205.0,-340.0,-789.0,-1228.0
-343,-776,-1196,-354.0,-730.0,-1240.0,-344.0,-763.0,-1206.0,-340.0,-796.0,-1233.0
-353,-785,-1177,-354.0,-730.0,-1240.0,-345.0,-764.0,-1207.0,-341.0,-801.0,-1236.0
-370,-792,-1159,-354.0,-730.0,-1240.0,-346.0,-767.0,-1207.0,-342.0,-806.0,-1251.0
-349,-808,-1134,-354.0,-730.0,-1240.0,-347.0,-769.0,-1207.0,-343.0,-821.0,-1238.0
-340,-796,-1169,-354.0,-730.0,-1240.0,-350.0,-770.0,-1208.0,-346.0,-806.0,-1225.0
-330,-791,-1187,-354.0,-730.0,-1240.0,-348.0,-771.0,-1208.0,-343.0,-793.0,-1213.0
-316,-784,-1202,-354.0,-730.0,-1240.0,-347.0,-773.0,-1209.0,-342.0,-778.0,-1196.0
-310,-778,-1220,-354.0,-730.0,-1240.0,-346.0,-774.0,-1210.0,-340.0,-762.0,-1169.0
-296,-773,-1230,-354.0,-730.0,-1240.0,-345.0,-775.0,-1210.0,-340.0,-742.0,-1160.0
-304,-769,-1239,-354.0,-730.0,-1240.0,-344.0,-776.0,-1211.0,-342.0,-697.0,-1129.0
-307,-765,-1244,-354.0,-730.0,-1240.0,-343.0,-777.0,-1211.0,-347.0,-726.0,-1151.0
-310,-762,-1240,-354.0,-730.0,-1240.0,-342.0,-778.0,-1213.0,-351.0,-738.0,-1161.0
-313,-760,-1238,-354.0,-730.0,-1240.0,-339.0,-779.0,-1211.0,-355.0,-749.0,-1172.0
-318,-758,-1236,-354.0,-730.0,-1240.0,-341.0,-780.0,-1211.0,-361.0,-768.0,-1188.0
-319,-757,-1235,-354.0,-730.0,-1240.0,-342.0,-780.0,-1210.0,-366.0,-790.0,-1203.0
-321,-756,-1234,-354.0,-730.0,-1240.0,-342.0,-781.0,-1210.0,-371.0,-800.0,-1212.0
-322,-756,-1234,-354.0,-730.0,-1240.0,-343.0,-781.0,-1209.0,-365.0,-807.0,-1218.0
-322,-756,-1233,-354.0,-730.0,-1240.0,-344.0,-782.0,-1208.0,-362.0,-815.0,-1223.0
-323,-754,-1233,-354.0,-730.0,-1240.0,-345.0,-782.0,-1207.0,-358.0,-806.0,-1224.0
-324,-756,-1232,-354.0,-730.0,-1240.0,-346.0,-782.0,-1206.0,-354.0,-803.0,-1224.0
-325,-756,-1231,-354.0,-730.0,-1240.0,-347.0,-783.0,-1205.0,-350.0,-800.0,-1224.0
-325,-756,-1230,-354.0,-730.0,-1240.0,-348.0,-783.0,-1205.0,-347.0,-796.0,-1226.0
-326,-756,-1229,-354.0,-730.0,-1240.0,-350.0,-784.0,-1205.0,-344.0,-793.0,-1224.0
-326,-757,-1229,-354.0,-730.0,-1240.0,-351.0,-785.0,-1205.0,-341.0,-792.0,-1224.0
-327,-757,-1228,-354.0,-730.0,-1240.0,-352.0,-786.0,-1205.0,-340.0,-790.0,-1224.0
-327,-758,-1227,-354.0,-730.0,-1240.0,-353.0,-787.0,-1206.0,-339.0,-789.0,-1223.0
-327,-758,-1226,-354.0,-730.0,-1240.0,-355.0,-788.0,-1207.0,-338.0,-788.0,-1223.0
-328,-758,-1226,-354.0,-730.0,-1240.0,-353.0,-789.0,-1209.0,-337.0,-787.0,-1222.0
-329,-757,-1225,-354.0,-730.0,-1240.0,-353.0,-789.0,-1210.0,-337.0,-786.0,-1222.0
-330,-757,-1224,-354.0,-730.0,-1240.0,-351.0,-791.0,-1212.0,-337.0,-785.0,-1221.0
-330,-757,-1224,-354.0,-730.0,-1240.0,-350.0,-789.0,-1214.0,-336.0,-784.0,-1221.0
-331,-756,-1224,-354.0,-730.0,-1240.0,-349.0,-789.0,-1217.0,-336.0,-783.0,-1221.0
-332,-756,-1223,-354.0,-730.0,-1240.0,-348.0,-787.0,-1220.0,-335.0,-782.0,-1221.0
-332,-755,-1223,-354.0,-730.0,-1240.0,-346.0,-786.0,-1222.0,-334.0,-781.0,-1221.0
-333,-755,-1222,-354.0,-730.0,-1240.0,-344.0,-785.0,-1225.0,-334.0,-780.0,-1220.0
-334,-755,-1221,-354.0,-730.0,-1240.0,-341.0,-784.0,-1228.0,-333.0,-779.0,-1220.0
-335,-755,-1221,-354.0,-730.0,-1240.0,-339.0,-782.0,-1231.0,-330.0,-779.0,-1220.0
-336,-755,-1220,-354.0,-730.0,-1240.0,-336.0,-781.0,-1234.0,-333.0,-779.0,-1221.0
-337,-755,-1219,-354.0,-730.0,-1240.0,-334.0,-780.0,-1236.0,-333.0,-779.0,-1221.0
-338,-754,-1218,-354.0,-730.0,-1240.0,-331.0,-779.0,-1239.0,-333.0,-779.0,-1221.0
-339,-754,-1217,-354.0,-730.0,-1240.0,-329.0,-778.0,-1241.0,-332.0,-779.0,-1221.0
-340,-754,-1216,-354.0,-730.0,-1240.0,-327.0,-777.0,-1243.0,-332.0,-779.0,-1221.0
-341,-752,-1215,-354.0,-730.0,-1240.0,-326.0,-776.0,-1244.0,-331.0,-779.0,-1222.0
-342,-754,-1214,-354.0,-730.0,-1240.0,-325.0,-776.0,-1246.0,-330.0,-779.0,-1222.0
-343,-754,-1213,-354.0,-730.0,-1240.0,-324.0,-775.0,-1246.0,-329.0,-778.0,-1223.0
-344,-754,-1211,-354.0,-730.0,-1240.0,-323.0,-774.0,-1246.0,-328.0,-777.0,-1223.0
-346,-755,-1209,-354.0,-730.0,-1240.0,-323.0,-773.0,-1246.0,-327.0,-776.0,-1225.0
-347,-755,-1207,-354.0,-730.0,-1240.0,-322.0,-773.0,-1246.0,-325.0,-775.0,-1224.0
-349,-756,-1205,-354.0,-730.0,-1240.0,-321.0,-773.0,-1246.0,-324.0,-773.0,-1223.0
-350,-757,-1202,-354.0,-730.0,-1240.0,-321.0,-773.0,-1246.0,-322.0,-771.0,-1223.0
-352,-759,-1200,-354.0,-730.0,-1240.0,-319.0,-771.0,-1246.0,-321.0,-770.0,-1221.0
-353,-760,-1197,-354.0,-730.0,-1240.0,-316.0,-767.0,-1247.0,-319.0,-767.0,-1220.0
-354,-762,-1195,-354.0,-730.0,-1240.0,-312.0,-761.0,-1249.0,-318.0,-765.0,-1218.0
-355,-763,-1192,-354.0,-730.0,-1240.0,-308.0,-757.0,-1247.0,-316.0,-762.0,-1216.0
-356,-764,-1190,-354.0,-730.0,-1240.0,-303.0,-751.0,-1244.0,-316.0,-758.0,-1214.0
-358,-765,-1189,-354.0,-730.0,-1240.0,-299.0,-744.0,-1238.0,-315.0,-755.0,-1211.0
-356,-766,-1188,-354.0,-730.0,-1240.0,-287.0,-729.0,-1232.0,-314.0,-751.0,-1209.0
-355,-767,-1187,-354.0,-730.0,-1240.0,-300.0,-739.0,-1226.0,-314.0,-748.0,-1206.0
-354,-768,-1186,-354.0,-730.0,-1240.0,-313.0,-761.0,-1219.0,-313.0,-745.0,-1204.0
-353,-770,-1184,-354.0,-730.0,-1240.0,-324.0,-767.0,-1212.0,-313.0,-742.0,-1201.0
-352,-771,-1186,-354.0,-730.0,-1240.0,-338.0,-778.0,-1211.0,-311.0,-739.0,-1198.0
-351,-772,-1187,-354.0,-730.0,-1240.0,-347.0,-803.0,-1227.0,-313.0,-737.0,-1196.0
-350,-772,-1187,-354.0,-730.0,-1240.0,-360.0,-826.0,-1241.0,-313.0,-735.0,-1194.0
-349,-773,-1187,-354.0,-730.0,-1240.0,-372.0,-837.0,-1265.0,-314.0,-734.0,-1193.0
-348,-773,-1188,-354.0,-730.0,-1240.0,-380.0,-845.0,-1293.0,-315.0,-733.0,-1191.0
-347,-774,-1188,-354.0,-730.0,-1240.0,-374.0,-864.0,-1308.0,-315.0,-731.0,-1190.0
-346,-774,-1188,-354.0,-730.0,-1240.0,-370.0,-854.0,-1330.0,-317.0,-733.0,-1190.0
-345,-774,-1189,-354.0,-730.0,-1240.0,-365.0,-849.0,-1362.0,-318.0,-734.0,-1190.0
-345,-775,-1189,-354.0,-730.0,-1240.0,-360.0,-842.0,-1339.0,-320.0,-735.0,-1190.0
-344,-775,-1190,-354.0,-730.0,-1240.0,-355.0,-831.0,-1326.0,-321.0,-736.0,-1190.0
-344,-775,-1192,-354.0,-730.0,-1240.0,-349.0,-822.0,-1310.0,-322.0,-737.0,-1190.0
-344,-776,-1190,-354.0,-730.0,-1240.0,-343.0,-814.0,-1296.0,-323.0,-738.0,-1190.0
-342,-776,-1190,-354.0,-730.0,-1240.0,-339.0,-805.0,-1285.0,-324.0,-740.0,-1190.0
-344,-776,-1189,-354.0,-730.0,-1240.0,-335.0,-797.0,-1274.0,-324.0,-740.0,-1189.0
-344,-776,-1188,-354.0,-730.0,-1240.0,-332.0,-790.0,-1262.0,-325.0,-740.0,-1189.0
-344,-777,-1187,-354.0,-730.0,-1240.0,-329.0,-785.0,-1254.0,-325.0,-741.0,-1188.0
-345,-778,-1185,-354.0,-730.0,-1240.0,-328.0,-782.0,-1250.0,-326.0,-740.0,-1188.0
-345,-778,-1184,-354.0,-730.0,-1240.0,-327.0,-780.0,-1247.0,-326.0,-740.0,-1187.0
-346,-779,-1183,-354.0,-730.0,-1240.0,-326.0,-778.0,-1244.0,-327.0,-739.0,-1185.0
-347,-780,-1181,-354.0,-730.0,-1240.0,-326.0,-777.0,-1242.0,-327.0,-738.0,-1184.0
-347,-781,-1179,-354.0,-730.0,-1240.0,-326.0,-776.0,-1240.0,-327.0,-737.0,-1183.0
-348,-783,-1177,-354.0,-730.0,-1240.0,-326.0,-776.0,-1239.0,-328.0,-736.0,-1182.0
-349,-784,-1176,-354.0,-730.0,-1240.0,-326.0,-776.0,-1237.0,-328.0,-735.0,-1180.0
-350,-785,-1174,-354.0,-730.0,-1240.0,-326.0,-776.0,-1235.0,-328.0,-734.0,-1179.0
-350,-786,-1173,-354.0,-730.0,-1240.0,-325.0,-776.0,-1234.0,-328.0,-733.0,-1178.0
-351,-789,-1172,-354.0,-730.0,-1240.0,-325.0,-775.0,-1232.0,-329.0,-732.0,-1177.0
-352,-787,-1169,-354.0,-730.0,-1240.0,-325.0,-774.0,-1230.0,-329.0,-731.0,-1175.0
-355,-786,-1171,-354.0,-730.0,-1240.0,-325.0,-774.0,-1229.0,-329.0,-729.0,-1174.0
-353,-785,-1173,-354.0,-730.0,-1240.0,-324.0,-772.0,-1226.0,-329.0,-728.0,-1173.0
-352,-783,-1175,-354.0,-730.0,-1240.0,-324.0,-771.0,-1224.0,-329.0,-728.0,-1172.0
-351,-781,-1178,-354.0,-730.0,-1240.0,-324.0,-769.0,-1222.0,-329.0,-726.0,-1170.0
-349,-779,-1183,-354.0,-730.0,-1240.0,-324.0,-768.0,-1220.0,-328.0,-724.0,-1172.0
-346,-777,-1188,-354.0,-730.0,-1240.0,-324.0,-766.0,-1217.0,-328.0,-726.0,-1174.0
-344,-774,-1193,-354.0,-730.0,-1240.0,-322.0,-765.0,-1215.0,-328.0,-728.0,-1176.0
-341,-772,-1199,-354.0,-730.0,-1240.0,-324.0,-764.0,-1212.0,-328.0,-730.0,-1179.0
-338,-769,-1203,-354.0,-730.0,-1240.0,-324.0,-763.0,-1210.0,-328.0,-733.0,-1182.0
-335,-766,-1209,-354.0,-730.0,-1240.0,-324.0,-762.0,-1207.0,-325.0,-738.0,-1186.0
-332,-764,-1213,-354.0,-730.0,-1240.0,-324.0,-762.0,-1204.0,-328.0,-742.0,-1190.0
-330,-763,-1216,-354.0,-730.0,-1240.0,-324.0,-761.0,-1203.0,-328.0,-747.0,-1194.0
-328,-761,-1219,-354.0,-730.0,-1240.0,-324.0,-761.0,-1200.0,-329.0,-753.0,-1198.0
-327,-760,-1221,-354.0,-730.0,-1240.0,-325.0,-760.0,-1199.0,-330.0,-757.0,-1203.0
-326,-760,-1223,-354.0,-730.0,-1240.0,-326.0,-759.0,-1198.0,-331.0,-761.0,-1207.0
-325,-760,-1224,-354.0,-730.0,-1240.0,-326.0,-757.0,-1195.0,-331.0,-765.0,-1210.0
-324,-759,-1225,-354.0,-730.0,-1240.0,-327.0,-756.0,-1197.0,-332.0,-769.0,-1213.0
-324,-759,-1226,-354.0,-730.0,-1240.0,-328.0,-754.0,-1198.0,-333.0,-773.0,-1215.0
-324,-759,-1227,-354.0,-730.0,-1240.0,-329.0,-753.0,-1199.0,-333.0,-775.0,-1218.0
-324,-759,-1227,-354.0,-730.0,-1240.0,-330.0,-752.0,-1200.0,-334.0,-777.0,-1219.0
-324,-759,-1228,-354.0,-730.0,-1240.0,-331.0,-750.0,-1201.0,-334.0,-779.0,-1221.0
-323,-759,-1230,-354.0,-730.0,-1240.0,-332.0,-752.0,-1202.0,-335.0,-781.0,-1222.0
-320,-757,-1234,-354.0,-730.0,-1240.0,-333.0,-753.0,-1203.0,-335.0,-782.0,-1223.0
-317,-754,-1239,-354.0,-730.0,-1240.0,-334.0,-754.0,-1204.0,-335.0,-783.0,-1224.0
-313,-752,-1245,-354.0,-730.0,-1240.0,-335.0,-754.0,-1204.0,-335.0,-784.0,-1225.0
-311,-749,-1249,-354.0,-730.0,-1240.0,-336.0,-755.0,-1205.0,-334.0,-785.0,-1227.0
-299,-746,-1256,-354.0,-730.0,-1240.0,-338.0,-756.0,-1206.0,-332.0,-787.0,-1230.0
-308,-738,-1269,-354.0,-730.0,-1240.0,-339.0,-758.0,-1207.0,-334.0,-792.0,-1236.0
-312,-747,-1242,-354.0,-730.0,-1240.0,-340.0,-759.0,-1207.0,-335.0,-799.0,-1241.0
-321,-754,-1227,-354.0,-730.0,-1240.0,-341.0,-761.0,-1208.0,-336.0,-803.0,-1245.0
-332,-765,-1216,-354.0,-730.0,-1240.0,-342.0,-763.0,-1208.0,-339.0,-807.0,-1260.0
-339,-774,-1198,-354.0,-730.0,-1240.0,-342.0,-766.0,-1209.0,-337.0,-822.0,-1246.0
-345,-782,-1177,-354.0,-730.0,-1240.0,-341.0,-768.0,-1210.0,-336.0,-808.0,-1240.0
-365,-790,-1136,-354.0,-730.0,-1240.0,-341.0,-770.0,-1210.0,-335.0,-802.0,-1222.0
-349,-809,-1160,-354.0,-730.0,-1240.0,-341.0,-772.0,-1212.0,-334.0,-778.0,-1202.0
-338,-796,-1174,-354.0,-730.0,-1240.0,-341.0,-774.0,-1210.0,-330.0,-762.0,-1182.0
-331,-792,-1186,-354.0,-730.0,-1240.0,-341.0,-775.0,-1210.0,-333.0,-745.0,-1173.0
-323,-786,-1200,-354.0,-730.0,-1240.0,-339.0,-776.0,-1209.0,-336.0,-729.0,-1135.0
-311,-780,-1218,-354.0,-730.0,-1240.0,-341.0,-777.0,-1209.0,-342.0,-697.0,-1158.0
-303,-774,-1231,-354.0,-730.0,-1240.0,-341.0,-778.0,-1208.0,-345.0,-733.0,-1169.0
-295,-770,-1237,-354.0,-730.0,-1240.0,-341.0,-778.0,-1207.0,-349.0,-746.0,-1183.0
-304,-767,-1243,-354.0,-730.0,-1240.0,-341.0,-779.0,-1205.0,-354.0,-763.0,-1194.0
-306,-765,-1236,-354.0,-730.0,-1240.0,-341.0,-779.0,-1204.0,-359.0,-781.0,-1206.0
-310,-764,-1235,-354.0,-730.0,-1240.0,-341.0,-780.0,-1203.0,-365.0,-796.0,-1218.0
-314,-762,-1232,-354.0,-730.0,-1240.0,-342.0,-780.0,-1202.0,-360.0,-804.0,-1225.0
-316,-762,-1230,-354.0,-730.0,-1240.0,-343.0,-782.0,-1201.0,-358.0,-815.0,-1227.0
-318,-761,-1229,-354.0,-730.0,-1240.0,-344.0,-782.0,-1200.0,-355.0,-806.0,-1228.0
-319,-760,-1228,-354.0,-730.0,-1240.0,-346.0,-784.0,-1199.0,-350.0,-802.0,-1228.0
-321,-760,-1228,-354.0,-730.0,-1240.0,-347.0,-785.0,-1197.0,-346.0,-799.0,-1229.0
-321,-759,-1228,-354.0,-730.0,-1240.0,-348.0,-786.0,-1199.0,-343.0,-796.0,-1229.0
-322,-758,-1229,-354.0,-730.0,-1240.0,-349.0,-788.0,-1201.0,-340.0,-794.0,-1229.0
-322,-758,-1232,-354.0,-730.0,-1240.0,-351.0,-789.0,-1201.0,-338.0,-793.0,-1231.0
-323,-755,-1229,-354.0,-730.0,-1240.0,-351.0,-790.0,-1203.0,-336.0,-792.0,-1229.0
-323,-757,-1228,-354.0,-730.0,-1240.0,-352.0,-793.0,-1205.0,-335.0,-791.0,-1229.0
-324,-758,-1227,-354.0,-730.0,-1240.0,-354.0,-791.0,-1207.0,-335.0,-790.0,-1229.0
-325,-759,-1225,-354.0,-730.0,-1240.0,-352.0,-790.0,-1209.0,-335.0,-789.0,-1228.0
-326,-760,-1222,-354.0,-730.0,-1240.0,-351.0,-789.0,-1212.0,-335.0,-789.0,-1228.0
-327,-760,-1221,-354.0,-730.0,-1240.0,-349.0,-788.0,-1214.0,-335.0,-788.0,-1227.0
-328,-762,-1219,-354.0,-730.0,-1240.0,-347.0,-786.0,-1217.0,-335.0,-787.0,-1226.0
-329,-762,-1218,-354.0,-730.0,-1240.0,-345.0,-784.0,-1220.0,-334.0,-786.0,-1225.0
-329,-762,-1217,-354.0,-730.0,-1240.0,-342.0,-782.0,-1222.0,-334.0,-785.0,-1224.0
-330,-763,-1216,-354.0,-730.0,-1240.0,-339.0,-781.0,-1225.0,-334.0,-784.0,-1224.0
-331,-763,-1215,-354.0,-730.0,-1240.0,-336.0,-779.0,-1227.0,-333.0,-783.0,-1224.0
-332,-762,-1215,-354.0,-730.0,-1240.0,-333.0,-777.0,-1229.0,-333.0,-782.0,-1224.0
-332,-762,-1215,-354.0,-730.0,-1240.0,-330.0,-776.0,-1231.0,-332.0,-781.0,-1224.0
-333,-761,-1215,-354.0,-730.0,-1240.0,-328.0,-774.0,-1233.0,-332.0,-781.0,-1224.0
-334,-761,-1215,-354.0,-730.0,-1240.0,-325.0,-774.0,-1234.0,-331.0,-780.0,-1224.0
-335,-760,-1214,-354.0,-730.0,-1240.0,-323.0,-773.0,-1236.0,-330.0,-780.0,-1224.0
-336,-759,-1214,-354.0,-730.0,-1240.0,-322.0,-772.0,-1237.0,-330.0,-779.0,-1224.0
-336,-758,-1213,-354.0,-730.0,-1240.0,-321.0,-769.0,-1239.0,-329.0,-779.0,-1224.0
-337,-758,-1213,-354.0,-730.0,-1240.0,-320.0,-771.0,-1239.0,-328.0,-778.0,-1224.0
-338,-758,-1212,-354.0,-730.0,-1240.0,-319.0,-772.0,-1239.0,-327.0,-778.0,-1224.0
-339,-756,-1211,-354.0,-730.0,-1240.0,-318.0,-772.0,-1239.0,-326.0,-777.0,-1225.0
-341,-758,-1209,-354.0,-730.0,-1240.0,-318.0,-771.0,-1240.0,-325.0,-776.0,-1225.0
-342,-758,-1208,-354.0,-730.0,-1240.0,-317.0,-770.0,-1240.0,-324.0,-775.0,-1227.0
-344,-758,-1206,-354.0,-730.0,-1240.0,-316.0,-768.0,-1240.0,-323.0,-774.0,-1225.0
-345,-759,-1204,-354.0,-730.0,-1240.0,-313.0,-764.0,-1240.0,-322.0,-772.0,-1225.0
-347,-760,-1202,-354.0,-730.0,-1240.0,-309.0,-760.0,-1242.0,-321.0,-771.0,-1224.0
-349,-761,-1199,-354.0,-730.0,-1240.0,-306.0,-755.0,-1241.0,-320.0,-770.0,-1222.0
-351,-762,-1197,-354.0,-730.0,-1240.0,-300.0,-749.0,-1239.0,-319.0,-767.0,-1221.0
-353,-763,-1194,-354.0,-730.0,-1240.0,-294.0,-742.0,-1234.0,-318.0,-765.0,-1219.0
-354,-764,-1191,-354.0,-730.0,-1240.0,-289.0,-736.0,-1228.0,-317.0,-763.0,-1217.0
-355,-765,-1189,-354.0,-730.0,-1240.0,-280.0,-725.0,-1222.0,-316.0,-760.0,-1215.0
-356,-767,-1187,-354.0,-730.0,-1240.0,-298.0,-749.0,-1215.0,-315.0,-756.0,-1213.0
-356,-768,-1184,-354.0,-730.0,-1240.0,-313.0,-762.0,-1207.0,-315.0,-753.0,-1210.0
-357,-769,-1183,-354.0,-730.0,-1240.0,-325.0,-777.0,-1202.0,-314.0,-750.0,-1207.0
-358,-770,-1181,-354.0,-730.0,-1240.0,-335.0,-796.0,-1215.0,-313.0,-746.0,-1205.0
-357,-771,-1180,-354.0,-730.0,-1240.0,-345.0,-816.0,-1227.0,-312.0,-742.0,-1202.0
-356,-773,-1179,-354.0,-730.0,-1240.0,-363.0,-829.0,-1251.0,-310.0,-738.0,-1199.0
-356,-774,-1176,-354.0,-730.0,-1240.0,-373.0,-842.0,-1277.0,-312.0,-736.0,-1196.0
-355,-775,-1178,-354.0,-730.0,-1240.0,-366.0,-854.0,-1299.0,-312.0,-733.0,-1194.0
-355,-775,-1179,-354.0,-730.0,-1240.0,-363.0,-843.0,-1320.0,-313.0,-731.0,-1192.0
-354,-776,-1179,-354.0,-730.0,-1240.0,-357.0,-837.0,-1357.0,-313.0,-729.0,-1190.0
-352,-776,-1179,-354.0,-730.0,-1240.0,-351.0,-830.0,-1336.0,-314.0,-726.0,-1188.0
-351,-777,-1179,-354.0,-730.0,-1240.0,-345.0,-821.0,-1324.0,-315.0,-728.0,-1187.0
-350,-777,-1180,-354.0,-730.0,-1240.0,-338.0,-811.0,-1306.0,-316.0,-729.0,-1186.0
-350,-778,-1180,-354.0,-730.0,-1240.0,-333.0,-803.0,-1292.0,-317.0,-730.0,-1185.0
-349,-778,-1181,-354.0,-730.0,-1240.0,-328.0,-794.0,-1281.0,-319.0,-730.0,-1185.0
-349,-779,-1181,-354.0,-730.0,-1240.0,-324.0,-786.0,-1268.0,-320.0,-732.0,-1184.0
-349,-779,-1182,-354.0,-730.0,-1240.0,-321.0,-780.0,-1255.0,-321.0,-733.0,-1184.0
-349,-780,-1181,-354.0,-730.0,-1240.0,-320.0,-776.0,-1247.0,-322.0,-734.0,-1184.0
-349,-780,-1181,-354.0,-730.0,-1240.0,-318.0,-772.0,-1241.0,-323.0,-735.0,-1183.0
-349,-780,-1180,-354.0,-730.0,-1240.0,-316.0,-770.0,-1237.0,-324.0,-736.0,-1183.0
-349,-781,-1178,-354.0,-730.0,-1240.0,-318.0,-767.0,-1235.0,-325.0,-736.0,-1181.0
-349,-781,-1177,-354.0,-730.0,-1240.0,-319.0,-767.0,-1232.0,-326.0,-736.0,-1180.0
-349,-781,-1176,-354.0,-730.0,-1240.0,-319.0,-765.0,-1230.0,-327.0,-736.0,-1179.0
-350,-782,-1175,-354.0,-730.0,-1240.0,-319.0,-762.0,-1229.0,-328.0,-736.0,-1177.0
-350,-782,-1174,-354.0,-730.0,-1240.0,-319.0,-765.0,-1227.0,-329.0,-734.0,-1176.0
-351,-783,-1173,-354.0,-730.0,-1240.0,-319.0,-765.0,-1226.0,-330.0,-733.0,-1174.0
-352,-783,-1172,-354.0,-730.0,-1240.0,-320.0,-766.0,-1224.0,-330.0,-732.0,-1172.0
-353,-784,-1170,-354.0,-730.0,-1240.0,-320.0,-766.0,-1223.0,-331.0,-730.0,-1170.0
-354,-784,-1169,-354.0,-730.0,-1240.0,-320.0,-766.0,-1222.0,-331.0,-729.0,-1167.0
-355,-785,-1167,-354.0,-730.0,-1240.0,-320.0,-766.0,-1220.0,-332.0,-728.0,-1166.0
-356,-785,-1166,-354.0,-730.0,-1240.0,-321.0,-766.0,-1219.0,-332.0,-726.0,-1164.0
-357,-786,-1164,-354.0,-730.0,-1240.0,-321.0,-765.0,-1217.0,-333.0,-725.0,-1162.0
-358,-786,-1164,-354.0,-730.0,-1240.0,-321.0,-764.0,-1215.0,-334.0,-723.0,-1160.0
-358,-788,-1160,-354.0,-730.0,-1240.0,-321.0,-764.0,-1213.0,-334.0,-723.0,-1159.0
-360,-787,-1162,-354.0,-730.0,-1240.0,-322.0,-763.0,-1211.0,-335.0,-722.0,-1158.0
-358,-786,-1163,-354.0,-730.0,-1240.0,-322.0,-762.0,-1208.0,-335.0,-721.0,-1155.0
-358,-786,-1164,-354.0,-730.0,-1240.0,-322.0,-761.0,-1206.0,-335.0,-718.0,-1157.0
-357,-785,-1168,-354.0,-730.0,-1240.0,-323.0,-760.0,-1204.0,-335.0,-721.0,-1158.0
-356,-783,-1171,-354.0,-730.0,-1240.0,-324.0,-758.0,-1201.0,-335.0,-722.0,-1160.0
-353,-782,-1175,-354.0,-730.0,-1240.0,-325.0,-757.0,-1199.0,-335.0,-724.0,-1163.0
-351,-780,-1179,-354.0,-730.0,-1240.0,-326.0,-756.0,-1196.0,-332.0,-727.0,-1166.0
-348,-778,-1184,-354.0,-730.0,-1240.0,-326.0,-755.0,-1194.0,-334.0,-730.0,-1170.0
-345,-777,-1190,-354.0,-730.0,-1240.0,-327.0,-754.0,-1192.0,-336.0,-734.0,-1174.0
-342,-774,-1195,-354.0,-730.0,-1240.0,-328.0,-753.0,-1191.0,-336.0,-739.0,-1178.0
-338,-772,-1200,-354.0,-730.0,-1240.0,-329.0,-752.0,-1189.0,-338.0,-745.0,-1183.0
-335,-771,-1204,-354.0,-730.0,-1240.0,-330.0,-750.0,-1188.0,-339.0,-750.0,-1187.0
-332,-769,-1208,-354.0,-730.0,-1240.0,-331.0,-752.0,-1185.0,-340.0,-755.0,-1192.0
-330,-767,-1211,-354.0,-730.0,-1240.0,-333.0,-753.0,-1187.0,-342.0,-760.0,-1197.0
-328,-766,-1214,-354.0,-730.0,-1240.0,-334.0,-754.0,-1188.0,-342.0,-765.0,-1200.0
-327,-764,-1216,-354.0,-730.0,-1240.0,-334.0,-755.0,-1189.0,-342.0,-770.0,-1204.0
-326,-763,-1218,-354.0,-730.0,-1240.0,-335.0,-756.0,-1191.0,-342.0,-773.0,-1207.0
-322,-762,-1219,-354.0,-730.0,-1240.0,-336.0,-758.0,-1192.0,-342.0,-777.0,-1210.0
-325,-762,-1220,-354.0,-730.0,-1240.0,-338.0,-759.0,-1194.0,-342.0,-780.0,-1212.0
-326,-761,-1221,-354.0,-730.0,-1240.0,-339.0,-760.0,-1196.0,-343.0,-783.0,-1214.0
-327,-760,-1221,-354.0,-730.0,-1240.0,-340.0,-761.0,-1199.0,-344.0,-785.0,-1215.0
-327,-759,-1221,-354.0,-730.0,-1240.0,-342.0,-763.0,-1200.0,-344.0,-787.0,-1215.0
-327,-759,-1222,-354.0,-730.0,-1240.0,-343.0,-764.0,-1202.0,-348.0,-787.0,-1212.0
-325,-757,-1226,-354.0,-730.0,-1240.0,-344.0,-765.0,-1203.0,-345.0,-787.0,-1215.0
-322,-755,-1231,-354.0,-730.0,-1240.0,-345.0,-766.0,-1204.0,-344.0,-787.0,-1217.0
-318,-752,-1238,-354.0,-730.0,-1240.0,-348.0,-767.0,-1205.0,-343.0,-791.0,-1223.0
-313,-749,-1245,-354.0,-730.0,-1240.0,-346.0,-769.0,-1205.0,-342.0,-797.0,-1228.0
-311,-746,-1249,-354.0,-730.0,-1240.0,-345.0,-770.0,-1206.0,-343.0,-802.0,-1232.0
-300,-738,-1266,-354.0,-730.0,-1240.0,-345.0,-771.0,-1207.0,-345.0,-807.0,-1236.0
-312,-745,-1247,-354.0,-730.0,-1240.0,-344.0,-772.0,-1206.0,-346.0,-813.0,-1249.0
-322,-752,-1228,-354.0,-730.0,-1240.0,-344.0,-773.0,-1206.0,-353.0,-828.0,-1234.0
-333,-762,-1216,-354.0,-730.0,-1240.0,-344.0,-774.0,-1205.0,-348.0,-810.0,-1226.0
-342,-772,-1196,-354.0,-730.0,-1240.0,-344.0,-775.0,-1204.0,-345.0,-797.0,-1210.0
-349,-780,-1181,-354.0,-730.0,-1240.0,-344.0,-776.0,-1204.0,-344.0,-784.0,-1190.0
-370,-791,-1159,-354.0,-730.0,-1240.0,-344.0,-777.0,-1203.0,-341.0,-762.0,-1169.0
-351,-808,-1133,-354.0,-730.0,-1240.0,-344.0,-778.0,-1202.0,-340.0,-738.0,-1159.0
-343,-799,-1166,-354.0,-730.0,-1240.0,-344.0,-778.0,-1202.0,-345.0,-721.0,-1121.0
-334,-795,-1178,-354.0,-730.0,-1240.0,-344.0,-779.0,-1201.0,-348.0,-690.0,-1150.0
-322,-789,-1193,-354.0,-730.0,-1240.0,-344.0,-779.0,-1200.0,-351.0,-738.0,-1164.0
-313,-781,-1210,-354.0,-730.0,-1240.0,-345.0,-779.0,-1199.0,-355.0,-749.0,-1178.0
-305,-776,-1224,-354.0,-730.0,-1240.0,-346.0,-780.0,-1198.0,-361.0,-768.0,-1197.0
-297,-771,-1233,-354.0,-730.0,-1240.0,-348.0,-780.0,-1198.0,-366.0,-786.0,-1210.0
-305,-767,-1242,-354.0,-730.0,-1240.0,-349.0,-781.0,-1198.0,-363.0,-806.0,-1220.0
-307,-763,-1238,-354.0,-730.0,-1240.0,-350.0,-782.0,-1196.0,-361.0,-816.0,-1228.0
-310,-761,-1236,-354.0,-730.0,-1240.0,-351.0,-784.0,-1198.0,-358.0,-809.0,-1224.0
-314,-759,-1235,-354.0,-730.0,-1240.0,-354.0,-786.0,-1198.0,-355.0,-807.0,-1223.0
-316,-755,-1233,-354.0,-730.0,-1240.0,-352.0,-788.0,-1198.0,-351.0,-804.0,-1224.0
-318,-758,-1231,-354.0,-730.0,-1240.0,-351.0,-790.0,-1199.0,-348.0,-801.0,-1225.0
-319,-759,-1230,-354.0,-730.0,-1240.0,-351.0,-792.0,-1200.0,-346.0,-798.0,-1226.0
-320,-760,-1229,-354.0,-730.0,-1240.0,-350.0,-793.0,-1201.0,-343.0,-796.0,-1229.0
-321,-760,-1228,-354.0,-730.0,-1240.0,-349.0,-795.0,-1202.0,-341.0,-795.0,-1226.0
-322,-760,-1227,-354.0,-730.0,-1240.0,-348.0,-795.0,-1204.0,-340.0,-794.0,-1225.0
-323,-760,-1226,-354.0,-730.0,-1240.0,-347.0,-797.0,-1206.0,-339.0,-793.0,-1224.0
-324,-761,-1225,-354.0,-730.0,-1240.0,-346.0,-795.0,-1207.0,-339.0,-792.0,-1223.0
-325,-761,-1223,-354.0,-730.0,-1240.0,-344.0,-794.0,-1209.0,-339.0,-791.0,-1222.0
-325,-762,-1223,-354.0,-730.0,-1240.0,-343.0,-793.0,-1211.0,-338.0,-790.0,-1221.0
-326,-763,-1222,-354.0,-730.0,-1240.0,-341.0,-789.0,-1213.0,-338.0,-789.0,-1221.0
-326,-764,-1221,-354.0,-730.0,-1240.0,-340.0,-786.0,-1216.0,-337.0,-788.0,-1220.0
-327,-765,-1220,-354.0,-730.0,-1240.0,-338.0,-782.0,-1219.0,-337.0,-787.0,-1219.0
-327,-766,-1219,-354.0,-730.0,-1240.0,-336.0,-779.0,-1222.0,-337.0,-786.0,-1219.0
-327,-767,-1218,-354.0,-730.0,-1240.0,-334.0,-776.0,-1225.0,-337.0,-785.0,-1219.0
-327,-769,-1217,-354.0,-730.0,-1240.0,-332.0,-773.0,-1228.0,-337.0,-784.0,-1219.0
-328,-767,-1217,-354.0,-730.0,-1240.0,-331.0,-773.0,-1230.0,-337.0,-784.0,-1219.0
-329,-767,-1216,-354.0,-730.0,-1240.0,-329.0,-773.0,-1233.0,-337.0,-784.0,-1217.0
-330,-766,-1216,-354.0,-730.0,-1240.0,-329.0,-774.0,-1235.0,-337.0,-783.0,-1218.0
-332,-766,-1216,-354.0,-730.0,-1240.0,-328.0,-775.0,-1237.0,-336.0,-783.0,-1219.0
-333,-765,-1216,-354.0,-730.0,-1240.0,-328.0,-775.0,-1238.0,-336.0,-783.0,-1219.0
-334,-765,-1216,-354.0,-730.0,-1240.0,-328.0,-775.0,-1238.0,-335.0,-782.0,-1219.0
-335,-764,-1215,-354.0,-730.0,-1240.0,-328.0,-777.0,-1238.0,-334.0,-782.0,-1219.0
-336,-764,-1215,-354.0,-730.0,-1240.0,-328.0,-776.0,-1238.0,-334.0,-781.0,-1219.0
-336,-763,-1215,-354.0,-730.0,-1240.0,-326.0,-775.0,-1239.0,-333.0,-780.0,-1220.0
-337,-762,-1214,-354.0,-730.0,-1240.0,-324.0,-774.0,-1238.0,-332.0,-780.0,-1220.0
-339,-762,-1213,-354.0,-730.0,-1240.0,-321.0,-772.0,-1238.0,-331.0,-779.0,-1220.0
-340,-761,-1213,-354.0,-730.0,-1240.0,-316.0,-768.0,-1238.0,-329.0,-777.0,-1219.0
-341,-761,-1212,-354.0,-730.0,-1240.0,-311.0,-763.0,-1238.0,-328.0,-776.0,-1219.0
-343,-761,-1211,-354.0,-730.0,-1240.0,-306.0,-758.0,-1234.0,-327.0,-775.0,-1218.0
-344,-759,-1210,-354.0,-730.0,-1240.0,-301.0,-751.0,-1228.0,-326.0,-772.0,-1217.0
-345,-761,-1209,-354.0,-730.0,-1240.0,-290.0,-747.0,-1221.0,-325.0,-771.0,-1215.0
-347,-761,-1207,-354.0,-730.0,-1240.0,-303.0,-735.0,-1214.0,-324.0,-769.0,-1214.0
-348,-761,-1205,-354.0,-730.0,-1240.0,-315.0,-760.0,-1206.0,-323.0,-767.0,-1213.0
-349,-762,-1203,-354.0,-730.0,-1240.0,-329.0,-772.0,-1200.0,-323.0,-764.0,-1211.0
-350,-763,-1201,-354.0,-730.0,-1240.0,-346.0,-787.0,-1182.0,-322.0,-761.0,-1209.0
-351,-764,-1199,-354.0,-730.0,-1240.0,-356.0,-807.0,-1207.0,-322.0,-758.0,-1206.0
-352,-765,-1196,-354.0,-730.0,-1240.0,-371.0,-825.0,-1230.0,-322.0,-755.0,-1203.0
-352,-766,-1195,-354.0,-730.0,-1240.0,-391.0,-839.0,-1256.0,-320.0,-752.0,-1199.0
-353,-767,-1193,-354.0,-730.0,-1240.0,-383.0,-850.0,-1282.0,-322.0,-749.0,-1197.0
-354,-768,-1192,-354.0,-730.0,-1240.0,-378.0,-859.0,-1308.0,-322.0,-747.0,-1193.0
-353,-769,-1192,-354.0,-730.0,-1240.0,-372.0,-849.0,-1334.0,-322.0,-744.0,-1191.0
-352,-770,-1191,-354.0,-730.0,-1240.0,-366.0,-843.0,-1367.0,-323.0,-742.0,-1189.0
-351,-771,-1191,-354.0,-730.0,-1240.0,-359.0,-835.0,-1341.0,-324.0,-741.0,-1186.0
-351,-772,-1192,-354.0,-730.0,-1240.0,-353.0,-825.0,-1325.0,-325.0,-740.0,-1184.0
-350,-772,-1192,-354.0,-730.0,-1240.0,-346.0,-816.0,-1305.0,-326.0,-739.0,-1183.0
-349,-773,-1193,-354.0,-730.0,-1240.0,-340.0,-807.0,-1291.0,-327.0,-736.0,-1182.0
-348,-773,-1194,-354.0,-730.0,-1240.0,-335.0,-798.0,-1279.0,-328.0,-739.0,-1181.0
-347,-773,-1195,-354.0,-730.0,-1240.0,-331.0,-791.0,-1263.0,-329.0,-739.0,-1181.0
-346,-773,-1196,-354.0,-730.0,-1240.0,-328.0,-785.0,-1251.0,-330.0,-740.0,-1181.0
-344,-773,-1197,-354.0,-730.0,-1240.0,-326.0,-781.0,-1242.0,-331.0,-741.0,-1181.0
-343,-773,-1199,-354.0,-730.0,-1240.0,-325.0,-778.0,-1236.0,-332.0,-742.0,-1181.0
-341,-773,-1200,-354.0,-730.0,-1240.0,-325.0,-776.0,-1232.0,-334.0,-743.0,-1180.0
-340,-774,-1201,-354.0,-730.0,-1240.0,-323.0,-775.0,-1230.0,-335.0,-744.0,-1180.0
-339,-774,-1201,-354.0,-730.0,-1240.0,-325.0,-774.0,-1227.0,-336.0,-745.0,-1179.0
-339,-775,-1203,-354.0,-730.0,-1240.0,-325.0,-774.0,-1226.0,-337.0,-745.0,-1179.0
-336,-775,-1202,-354.0,-730.0,-1240.0,-325.0,-773.0,-1225.0,-337.0,-746.0,-1178.0
-338,-776,-1201,-354.0,-730.0,-1240.0,-326.0,-773.0,-1223.0,-338.0,-746.0,-1177.0
-339,-777,-1201,-354.0,-730.0,-1240.0,-326.0,-773.0,-1222.0,-339.0,-745.0,-1176.0
-339,-777,-1199,-354.0,-730.0,-1240.0,-326.0,-773.0,-1220.0,-339.0,-745.0,-1174.0
-339,-778,-1198,-354.0,-730.0,-1240.0,-326.0,-773.0,-1219.0,-340.0,-744.0,-1173.0
-340,-778,-1196,-354.0,-730.0,-1240.0,-326.0,-773.0,-1217.0,-340.0,-742.0,-1171.0
-341,-779,-1195,-354.0,-730.0,-1240.0,-327.0,-773.0,-1216.0,-340.0,-741.0,-1170.0
-342,-780,-1194,-354.0,-730.0,-1240.0,-327.0,-772.0,-1214.0,-340.0,-739.0,-1168.0
-343,-781,-1192,-354.0,-730.0,-1240.0,-328.0,-772.0,-1213.0,-341.0,-737.0,-1166.0
-343,-782,-1190,-354.0,-730.0,-1240.0,-328.0,-771.0,-1210.0,-341.0,-735.0,-1163.0
-344,-783,-1188,-354.0,-730.0,-1240.0,-329.0,-771.0,-1207.0,-341.0,-733.0,-1161.0
-345,-784,-1186,-354.0,-730.0,-1240.0,-329.0,-770.0,-1205.0,-341.0,-731.0,-1159.0
-346,-785,-1184,-354.0,-730.0,-1240.0,-330.0,-769.0,-1202.0,-341.0,-729.0,-1157.0
-347,-786,-1183,-354.0,-730.0,-1240.0,-330.0,-768.0,-1199.0,-342.0,-727.0,-1155.0
-347,-787,-1182,-354.0,-730.0,-1240.0,-330.0,-767.0,-1196.0,-342.0,-725.0,-1154.0
-348,-787,-1181,-354.0,-730.0,-1240.0,-331.0,-766.0,-1193.0,-342.0,-724.0,-1151.0
-348,-789,-1178,-354.0,-730.0,-1240.0,-331.0,-765.0,-1190.0,-342.0,-721.0,-1153.0
-349,-787,-1180,-354.0,-730.0,-1240.0,-331.0,-765.0,-1188.0,-342.0,-723.0,-1154.0
-349,-787,-1181,-354.0,-730.0,-1240.0,-332.0,-764.0,-1185.0,-342.0,-724.0,-1156.0
-349,-785,-1184,-354.0,-730.0,-1240.0,-332.0,-762.0,-1184.0,-342.0,-727.0,-1158.0
-347,-784,-1186,-354.0,-730.0,-1240.0,-333.0,-762.0,-1182.0,-342.0,-730.0,-1162.0
-345,-782,-1190,-354.0,-730.0,-1240.0,-334.0,-761.0,-1182.0,-342.0,-733.0,-1166.0
-344,-781,-1194,-354.0,-730.0,-1240.0,-335.0,-759.0,-1182.0,-342.0,-738.0,-1170.0
-341,-779,-1198,-354.0,-730.0,-1240.0,-335.0,-761.0,-1179.0,-342.0,-742.0,-1175.0
-338,-778,-1202,-354.0,-730.0,-1240.0,-336.0,-761.0,-1182.0,-343.0,-748.0,-1179.0
-335,-777,-1206,-354.0,-730.0,-1240.0,-337.0,-762.0,-1183.0,-344.0,-753.0,-1183.0
-331,-776,-1210,-354.0,-730.0,-1240.0,-338.0,-763.0,-1185.0,-345.0,-758.0,-1188.0
-329,-774,-1214,-354.0,-730.0,-1240.0,-339.0,-764.0,-1186.0,-346.0,-763.0,-1193.0
-326,-773,-1217,-354.0,-730.0,-1240.0,-340.0,-765.0,-1188.0,-347.0,-767.0,-1196.0
-321,-771,-1219,-354.0,-730.0,-1240.0,-341.0,-767.0,-1190.0,-347.0,-772.0,-1199.0
-324,-770,-1221,-354.0,-730.0,-1240.0,-342.0,-768.0,-1193.0,-347.0,-775.0,-1202.0
-325,-769,-1223,-354.0,-730.0,-1240.0,-343.0,-769.0,-1195.0,-347.0,-778.0,-1204.0
-326,-768,-1223,-354.0,-730.0,-1240.0,-344.0,-770.0,-1197.0,-347.0,-780.0,-1205.0
-326,-767,-1224,-354.0,-730.0,-1240.0,-345.0,-771.0,-1198.0,-347.0,-783.0,-1207.0
-326,-766,-1224,-354.0,-730.0,-1240.0,-346.0,-773.0,-1200.0,-348.0,-784.0,-1207.0
-325,-766,-1225,-354.0,-730.0,-1240.0,-346.0,-774.0,-1201.0,-349.0,-785.0,-1208.0
-324,-766,-1226,-354.0,-730.0,-1240.0,-348.0,-775.0,-1203.0,-349.0,-786.0,-1209.0
-322,-766,-1227,-354.0,-730.0,-1240.0,-346.0,-777.0,-1204.0,-350.0,-787.0,-1210.0
-321,-766,-1229,-354.0,-730.0,-1240.0,-346.0,-778.0,-1204.0,-350.0,-788.0,-1213.0
-319,-765,-1232,-354.0,-730.0,-1240.0,-345.0,-779.0,-1205.0,-351.0,-791.0,-1217.0
-316,-763,-1236,-354.0,-730.0,-1240.0,-344.0,-780.0,-1207.0,-350.0,-796.0,-1223.0
-313,-760,-1243,-354.0,-730.0,-1240.0,-344.0,-781.0,-1205.0,-350.0,-802.0,-1228.0
-311,-757,-1248,-354.0,-730.0,-1240.0,-343.0,-781.0,-1205.0,-349.0,-805.0,-1232.0
-308,-755,-1252,-354.0,-730.0,-1240.0,-343.0,-782.0,-1204.0,-348.0,-810.0,-1244.0
-300,-749,-1266,-354.0,-730.0,-1240.0,-342.0,-782.0,-1204.0,-346.0,-820.0,-1225.0
-309,-756,-1249,-354.0,-730.0,-1240.0,-340.0,-783.0,-1203.0,-344.0,-801.0,-1211.0
-318,-763,-1229,-354.0,-730.0,-1240.0,-342.0,-783.0,-1202.0,-342.0,-781.0,-1196.0
-329,-771,-1219,-354.0,-730.0,-1240.0,-342.0,-783.0,-1201.0,-341.0,-770.0,-1178.0
-338,-781,-1198,-354.0,-730.0,-1240.0,-343.0,-783.0,-1200.0,-342.0,-755.0,-1150.0
-345,-792,-1180,-354.0,-730.0,-1240.0,-344.0,-783.0,-1200.0,-343.0,-722.0,-1138.0
-352,-799,-1161,-354.0,-730.0,-1240.0,-345.0,-784.0,-1197.0,-345.0,-689.0,-1112.0
-342,-817,-1138,-354.0,-730.0,-1240.0,-347.0,-785.0,-1199.0,-349.0,-719.0,-1148.0
-335,-807,-1173,-354.0,-730.0,-1240.0,-349.0,-786.0,-1200.0,-353.0,-734.0,-1159.0
-326,-804,-1187,-354.0,-730.0,-1240.0,-351.0,-788.0,-1200.0,-356.0,-747.0,-1179.0
-311,-797,-1203,-354.0,-730.0,-1240.0,-353.0,-790.0,-1201.0,-360.0,-775.0,-1197.0
-303,-792,-1219,-354.0,-730.0,-1240.0,-355.0,-791.0,-1202.0,-363.0,-793.0,-1207.0
-299,-786,-1230,-354.0,-730.0,-1240.0,-356.0,-792.0,-1203.0,-368.0,-803.0,-1215.0
-292,-782,-1237,-354.0,-730.0,-1240.0,-358.0,-794.0,-1204.0,-362.0,-815.0,-1219.0
-300,-777,-1243,-354.0,-730.0,-1240.0,-358.0,-795.0,-1206.0,-359.0,-807.0,-1220.0
-303,-775,-1239,-354.0,-730.0,-1240.0,-361.0,-795.0,-1208.0,-355.0,-804.0,-1220.0
-306,-772,-1237,-354.0,-730.0,-1240.0,-358.0,-798.0,-1210.0,-351.0,-801.0,-1221.0
-309,-771,-1235,-354.0,-730.0,-1240.0,-357.0,-796.0,-1212.0,-348.0,-799.0,-1222.0
-312,-769,-1234,-354.0,-730.0,-1240.0,-355.0,-795.0,-1215.0,-346.0,-797.0,-1223.0
-314,-768,-1234,-354.0,-730.0,-1240.0,-353.0,-795.0,-1218.0,-344.0,-796.0,-1225.0
-316,-767,-1233,-354.0,-730.0,-1240.0,-351.0,-794.0,-1220.0,-344.0,-796.0,-1223.0
-317,-767,-1233,-354.0,-730.0,-1240.0,-349.0,-792.0,-1223.0,-343.0,-795.0,-1223.0
-318,-766,-1232,-354.0,-730.0,-1240.0,-346.0,-791.0,-1225.0,-343.0,-795.0,-1222.0
-319,-766,-1231,-354.0,-730.0,-1240.0,-344.0,-789.0,-1227.0,-342.0,-794.0,-1222.0
-320,-766,-1230,-354.0,-730.0,-1240.0,-341.0,-788.0,-1229.0,-342.0,-793.0,-1221.0
-321,-767,-1229,-354.0,-730.0,-1240.0,-339.0,-786.0,-1231.0,-341.0,-793.0,-1221.0
-322,-767,-1227,-354.0,-730.0,-1240.0,-337.0,-785.0,-1234.0,-341.0,-792.0,-1220.0
-323,-768,-1227,-354.0,-730.0,-1240.0,-336.0,-783.0,-1236.0,-341.0,-791.0,-1220.0
-323,-769,-1225,-354.0,-730.0,-1240.0,-335.0,-782.0,-1238.0,-341.0,-790.0,-1219.0
-324,-769,-1225,-354.0,-730.0,-1240.0,-334.0,-781.0,-1239.0,-341.0,-789.0,-1219.0
-324,-770,-1224,-354.0,-730.0,-1240.0,-334.0,-780.0,-1241.0,-341.0,-788.0,-1219.0
-325,-770,-1224,-354.0,-730.0,-1240.0,-334.0,-780.0,-1241.0,-340.0,-788.0,-1219.0
-326,-770,-1223,-354.0,-730.0,-1240.0,-333.0,-780.0,-1242.0,-340.0,-787.0,-1218.0
-326,-771,-1222,-354.0,-730.0,-1240.0,-333.0,-780.0,-1242.0,-340.0,-786.0,-1218.0
-327,-770,-1222,-354.0,-730.0,-1240.0,-333.0,-780.0,-1243.0,-340.0,-786.0,-1218.0
-328,-770,-1221,-354.0,-730.0,-1240.0,-333.0,-781.0,-1242.0,-339.0,-785.0,-1218.0
-329,-770,-1220,-354.0,-730.0,-1240.0,-332.0,-784.0,-1242.0,-339.0,-785.0,-1218.0
-330,-770,-1219,-354.0,-730.0,-1240.0,-331.0,-781.0,-1241.0,-338.0,-784.0,-1218.0
-331,-769,-1218,-354.0,-730.0,-1240.0,-329.0,-778.0,-1241.0,-337.0,-783.0,-1218.0
-332,-769,-1217,-354.0,-730.0,-1240.0,-325.0,-774.0,-1241.0,-337.0,-783.0,-1218.0
-333,-768,-1217,-354.0,-730.0,-1240.0,-320.0,-769.0,-1241.0,-336.0,-782.0,-1218.0
-334,-768,-1216,-354.0,-730.0,-1240.0,-314.0,-760.0,-1240.0,-335.0,-781.0,-1218.0
-335,-767,-1215,-354.0,-730.0,-1240.0,-308.0,-753.0,-1235.0,-334.0,-780.0,-1218.0
-337,-767,-1214,-354.0,-730.0,-1240.0,-295.0,-746.0,-1230.0,-333.0,-779.0,-1218.0
-339,-766,-1213,-354.0,-730.0,-1240.0,-304.0,-733.0,-1224.0,-332.0,-778.0,-1218.0
-340,-766,-1211,-354.0,-730.0,-1240.0,-314.0,-752.0,-1215.0,-330.0,-776.0,-1217.0
-342,-765,-1210,-354.0,-730.0,-1240.0,-326.0,-767.0,-1206.0,-329.0,-775.0,-1217.0
-344,-765,-1208,-354.0,-730.0,-1240.0,-337.0,-777.0,-1188.0,-328.0,-774.0,-1216.0
-346,-766,-1206,-354.0,-730.0,-1240.0,-352.0,-796.0,-1200.0,-327.0,-772.0,-1215.0
-347,-767,-1203,-354.0,-730.0,-1240.0,-366.0,-820.0,-1224.0,-326.0,-770.0,-1214.0
-349,-767,-1201,-354.0,-730.0,-1240.0,-376.0,-835.0,-1251.0,-325.0,-768.0,-1213.0
-351,-768,-1198,-354.0,-730.0,-1240.0,-386.0,-843.0,-1278.0,-323.0,-766.0,-1211.0
-353,-769,-1195,-354.0,-730.0,-1240.0,-378.0,-862.0,-1302.0,-323.0,-764.0,-1210.0
-354,-770,-1192,-354.0,-730.0,-1240.0,-373.0,-854.0,-1322.0,-323.0,-762.0,-1208.0
-355,-772,-1189,-354.0,-730.0,-1240.0,-367.0,-848.0,-1344.0,-321.0,-760.0,-1205.0
-356,-772,-1187,-354.0,-730.0,-1240.0,-361.0,-840.0,-1369.0,-323.0,-757.0,-1203.0
-358,-773,-1185,-354.0,-730.0,-1240.0,-356.0,-830.0,-1333.0,-323.0,-755.0,-1201.0
-358,-773,-1184,-354.0,-730.0,-1240.0,-350.0,-820.0,-1318.0,-323.0,-754.0,-1199.0
-361,-774,-1183,-354.0,-730.0,-1240.0,-344.0,-811.0,-1300.0,-324.0,-752.0,-1198.0
-359,-775,-1181,-354.0,-730.0,-1240.0,-338.0,-799.0,-1286.0,-325.0,-751.0,-1196.0
-358,-775,-1183,-354.0,-730.0,-1240.0,-335.0,-793.0,-1274.0,-326.0,-750.0,-1195.0
-358,-776,-1184,-354.0,-730.0,-1240.0,-332.0,-787.0,-1262.0,-327.0,-747.0,-1194.0
-357,-776,-1185,-354.0,-730.0,-1240.0,-329.0,-783.0,-1254.0,-328.0,-749.0,-1193.0
-355,-777,-1185,-354.0,-730.0,-1240.0,-328.0,-779.0,-1247.0,-328.0,-750.0,-1193.0
-354,-777,-1186,-354.0,-730.0,-1240.0,-328.0,-776.0,-1243.0,-329.0,-750.0,-1193.0
-353,-777,-1187,-354.0,-730.0,-1240.0,-328.0,-773.0,-1241.0,-329.0,-751.0,-1193.0
-351,-777,-1188,-354.0,-730.0,-1240.0,-328.0,-771.0,-1239.0,-330.0,-752.0,-1193.0
-350,-777,-1189,-354.0,-730.0,-1240.0,-328.0,-769.0,-1238.0,-331.0,-752.0,-1193.0
-349,-778,-1189,-354.0,-730.0,-1240.0,-327.0,-766.0,-1236.0,-332.0,-753.0,-1193.0
-348,-778,-1190,-354.0,-730.0,-1240.0,-327.0,-769.0,-1235.0,-333.0,-754.0,-1192.0
-347,-778,-1191,-354.0,-730.0,-1240.0,-327.0,-770.0,-1233.0,-333.0,-754.0,-1191.0
-346,-779,-1192,-354.0,-730.0,-1240.0,-327.0,-770.0,-1231.0,-334.0,-753.0,-1191.0
-346,-779,-1193,-354.0,-730.0,-1240.0,-325.0,-771.0,-1229.0,-334.0,-753.0,-1190.0
-346,-780,-1192,-354.0,-730.0,-1240.0,-327.0,-772.0,-1227.0,-334.0,-752.0,-1188.0
-344,-780,-1191,-354.0,-730.0,-1240.0,-327.0,-772.0,-1225.0,-334.0,-751.0,-1187.0
-346,-780,-1191,-354.0,-730.0,-1240.0,-327.0,-771.0,-1223.0,-334.0,-749.0,-1185.0
-346,-781,-1190,-354.0,-730.0,-1240.0,-327.0,-770.0,-1221.0,-333.0,-747.0,-1183.0
-346,-781,-1189,-354.0,-730.0,-1240.0,-328.0,-769.0,-1219.0,-333.0,-746.0,-1182.0
-347,-782,-1189,-354.0,-730.0,-1240.0,-328.0,-768.0,-1216.0,-333.0,-744.0,-1180.0
-347,-782,-1188,-354.0,-730.0,-1240.0,-329.0,-767.0,-1213.0,-333.0,-742.0,-1178.0
-347,-782,-1187,-354.0,-730.0,-1240.0,-329.0,-766.0,-1210.0,-333.0,-740.0,-1177.0
-348,-782,-1186,-354.0,-730.0,-1240.0,-330.0,-765.0,-1208.0,-333.0,-738.0,-1175.0
-348,-783,-1185,-354.0,-730.0,-1240.0,-330.0,-764.0,-1205.0,-333.0,-737.0,-1173.0
-349,-783,-1184,-354.0,-730.0,-1240.0,-331.0,-763.0,-1201.0,-333.0,-735.0,-1172.0
-350,-784,-1182,-354.0,-730.0,-1240.0,-331.0,-762.0,-1199.0,-333.0,-734.0,-1171.0
-350,-785,-1181,-354.0,-730.0,-1240.0,-332.0,-760.0,-1196.0,-333.0,-733.0,-1170.0
-351,-785,-1180,-354.0,-730.0,-1240.0,-332.0,-759.0,-1193.0,-333.0,-731.0,-1167.0
-351,-786,-1179,-354.0,-730.0,-1240.0,-333.0,-757.0,-1191.0,-333.0,-731.0,-1169.0
-353,-787,-1175,-354.0,-730.0,-1240.0,-333.0,-757.0,-1190.0,-333.0,-728.0,-1170.0
-351,-788,-1177,-354.0,-730.0,-1240.0,-334.0,-755.0,-1190.0,-332.0,-731.0,-1171.0
-351,-790,-1178,-354.0,-730.0,-1240.0,-335.0,-754.0,-1188.0,-332.0,-731.0,-1173.0
-350,-788,-1179,-354.0,-730.0,-1240.0,-337.0,-752.0,-1190.0,-332.0,-734.0,-1177.0
-350,-786,-1182,-354.0,-730.0,-1240.0,-338.0,-754.0,-1190.0,-330.0,-737.0,-1180.0
-348,-785,-1186,-354.0,-730.0,-1240.0,-339.0,-754.0,-1192.0,-332.0,-741.0,-1185.0
-346,-783,-1189,-354.0,-730.0,-1240.0,-340.0,-756.0,-1193.0,-332.0,-746.0,-1188.0
-344,-780,-1194,-354.0,-730.0,-1240.0,-341.0,-757.0,-1195.0,-332.0,-750.0,-1191.0
-342,-778,-1199,-354.0,-730.0,-1240.0,-342.0,-759.0,-1197.0,-333.0,-753.0,-1193.0
-339,-776,-1204,-354.0,-730.0,-1240.0,-343.0,-762.0,-1198.0,-334.0,-756.0,-1204.0
-336,-773,-1208,-354.0,-730.0,-1240.0,-344.0,-764.0,-1200.0,-335.0,-761.0,-1206.0
-332,-770,-1213,-354.0,-730.0,-1240.0,-345.0,-767.0,-1202.0,-335.0,-774.0,-1209.0
-330,-769,-1216,-354.0,-730.0,-1240.0,-346.0,-769.0,-1203.0,-334.0,-773.0,-1211.0
-327,-768,-1221,-354.0,-730.0,-1240.0,-347.0,-771.0,-1204.0,-332.0,-771.0,-1215.0
-325,-766,-1223,-354.0,-730.0,-1240.0,-348.0,-774.0,-1205.0,-330.0,-769.0,-1218.0
-323,-766,-1226,-354.0,-730.0,-1240.0,-348.0,-775.0,-1206.0,-329.0,-768.0,-1220.0
-322,-766,-1228,-354.0,-730.0,-1240.0,-349.0,-777.0,-1207.0,-328.0,-767.0,-1222.0
-321,-766,-1229,-354.0,-730.0,-1240.0,-349.0,-777.0,-1207.0,-327.0,-766.0,-1223.0
-320,-766,-1230,-354.0,-730.0,-1240.0,-349.0,-777.0,-1208.0,-326.0,-766.0,-1224.0
-320,-766,-1230,-354.0,-730.0,-1240.0,-349.0,-777.0,-1209.0,-325.0,-766.0,-1225.0
-319,-766,-1231,-354.0,-730.0,-1240.0,-349.0,-777.0,-1210.0,-325.0,-766.0,-1226.0
-318,-766,-1231,-354.0,-730.0,-1240.0,-351.0,-777.0,-1212.0,-324.0,-765.0,-1228.0
-317,-768,-1231,-354.0,-730.0,-1240.0,-349.0,-777.0,-1210.0,-323.0,-765.0,-1232.0
-317,-767,-1232,-354.0,-730.0,-1240.0,-349.0,-778.0,-1210.0,-321.0,-763.0,-1239.0
-315,-766,-1235,-354.0,-730.0,-1240.0,-349.0,-778.0,-1209.0,-317.0,-760.0,-1246.0
-314,-763,-1239,-354.0,-730.0,-1240.0,-349.0,-779.0,-1209.0,-314.0,-757.0,-1252.0
-311,-761,-1243,-354.0,-730.0,-1240.0,-349.0,-780.0,-1208.0,-310.0,-754.0,-1259.0
-309,-759,-1247,-354.0,-730.0,-1240.0,-348.0,-781.0,-1207.0,-306.0,-751.0,-1268.0
-305,-756,-1258,-354.0,-730.0,-1240.0,-348.0,-781.0,-1207.0,-311.0,-746.0,-1248.0
-308,-750,-1251,-354.0,-730.0,-1240.0,-349.0,-782.0,-1205.0,-319.0,-755.0,-1234.0
-312,-759,-1237,-354.0,-730.0,-1240.0,-319.0,-765.0,-1203.0,-335.0,-764.0,-1213.0
-321,-765,-1224,-354.0,-730.0,-1240.0,-318.0,-765.0,-1202.0,-344.0,-775.0,-1190.0
-335,-776,-1209,-354.0,-730.0,-1240.0,-318.0,-764.0,-1201.0,-353.0,-785.0,-1165.0
-342,-786,-1191,-354.0,-730.0,-1240.0,-317.0,-764.0,-1200.0,-335.0,-794.0,-1208.0
-351,-794,-1165,-354.0,-730.0,-1240.0,-317.0,-764.0,-1200.0,-335.0,-766.0,-1208.0
-370,-801,-1131,-354.0,-730.0,-1240.0,-315.0,-764.0,-1199.0,-335.0,-766.0,-1208.0
-348,-814,-1153,-354.0,-730.0,-1240.0,-317.0,-761.0,-1199.0,-335.0,-766.0,-1208.0
-341,-805,-1169,-354.0,-730.0,-1240.0,-317.0,-764.0,-1199.0,-335.0,-766.0,-1208.0
-333,-800,-1185,-354.0,-730.0,-1240.0,-318.0,-764.0,-1197.0,-335.0,-766.0,-1208.0
-319,-793,-1201,-354.0,-730.0,-1240.0,-319.0,-764.0,-1199.0,-335.0,-766.0,-1208.0
-308,-788,-1215,-354.0,-730.0,-1240.0,-320.0,-765.0,-1199.0,-335.0,-766.0,-1208.0
-304,-784,-1225,-354.0,-730.0,-1240.0,-321.0,-767.0,-1199.0,-335.0,-766.0,-1208.0
-299,-780,-1238,-354.0,-730.0,-1240.0,-323.0,-768.0,-1200.0,-335.0,-766.0,-1208.0
-305,-777,-1233,-354.0,-730.0,-1240.0,-325.0,-769.0,-1201.0,-335.0,-766.0,-1208.0
-308,-776,-1232,-354.0,-730.0,-1240.0,-327.0,-772.0,-1203.0,-335.0,-766.0,-1208.0
-311,-776,-1230,-354.0,-730.0,-1240.0,-330.0,-775.0,-1205.0,-335.0,-766.0,-1208.0
-313,-776,-1229,-354.0,-730.0,-1240.0,-333.0,-778.0,-1208.0,-335.0,-766.0,-1208.0
-325,-777,-1255,-354.0,-730.0,-1240.0,-337.0,-781.0,-1211.0,-335.0,-766.0,-1208.0
-325,-780,-1248,-354.0,-730.0,-1240.0,-340.0,-785.0,-1214.0,-335.0,-766.0,-1208.0
-325,-777,-1246,-354.0,-730.0,-1240.0,-343.0,-788.0,-1217.0,-335.0,-766.0,-1208.0
-324,-776,-1244,-354.0,-730.0,-1240.0,-346.0,-791.0,-1220.0,-335.0,-766.0,-1208.0
-324,-774,-1239,-354.0,-730.0,-1240.0,-349.0,-793.0,-1223.0,-335.0,-766.0,-1208.0
-324,-772,-1235,-354.0,-730.0,-1240.0,-352.0,-796.0,-1225.0,-335.0,-766.0,-1208.0
-324,-771,-1233,-354.0,-730.0,-1240.0,-354.0,-798.0,-1227.0,-335.0,-766.0,-1208.0
-324,-770,-1232,-354.0,-730.0,-1240.0,-356.0,-799.0,-1228.0,-335.0,-766.0,-1208.0
-324,-769,-1231,-354.0,-730.0,-1240.0,-357.0,-801.0,-1229.0,-335.0,-766.0,-1208.0
-324,-768,-1230,-354.0,-730.0,-1240.0,-359.0,-802.0,-1230.0,-335.0,-766.0,-1208.0
-324,-768,-1229,-354.0,-730.0,-1240.0,-360.0,-803.0,-1231.0,-335.0,-766.0,-1208.0
-324,-768,-1227,-354.0,-730.0,-1240.0,-361.0,-803.0,-1232.0,-335.0,-766.0,-1208.0
-324,-768,-1226,-354.0,-730.0,-1240.0,-361.0,-805.0,-1232.0,-335.0,-766.0,-1208.0
-322,-768,-1223,-354.0,-730.0,-1240.0,-361.0,-803.0,-1232.0,-335.0,-766.0,-1208.0
-324,-768,-1221,-354.0,-730.0,-1240.0,-361.0,-803.0,-1233.0,-335.0,-766.0,-1208.0
-324,-767,-1218,-354.0,-730.0,-1240.0,-361.0,-803.0,-1234.0,-335.0,-766.0,-1208.0
-324,-767,-1216,-354.0,-730.0,-1240.0,-365.0,-807.0,-1237.0,-335.0,-766.0,-1208.0
-324,-766,-1213,-354.0,-730.0,-1240.0,-336.0,-775.0,-1211.0,-335.0,-766.0,-1208.0
-324,-766,-1211,-354.0,-730.0,-1240.0,-336.0,-775.0,-1211.0,-335.0,-766.0,-1208.0
-324,-764,-1208,-354.0,-730.0,-1240.0,-336.0,-775.0,-1211.0,-335.0,-766.0,-1208.0
-324,-763,-1206,-354.0,-730.0,-1240.0,-336.0,-775.0,-1211.0,-335.0,-766.0,-1208.0
-324,-762,-1203,-354.0,-730.0,-1240.0,-336.0,-775.0,-1211.0,-335.0,-766.0,-1208.0
-324,-760,-1200,-354.0,-730.0,-1240.0,-336.0,-775.0,-1211.0,-335.0,-766.0,-1208.0
-324,-759,-1198,-354.0,-730.0,-1240.0,-336.0,-775.0,-1211.0,-335.0,-766.0,-1208.0
-325,-757,-1195,-354.0,-730.0,-1240.0,-336.0,-775.0,-1211.0,-335.0,-766.0,-1208.0
-325,-756,-1192,-354.0,-730.0,-1240.0,-336.0,-775.0,-1211.0,-335.0,-766.0,-1208.0
-325,-754,-1190,-354.0,-730.0,-1240.0,-336.0,-775.0,-1211.0,-335.0,-766.0,-1208.0
-326,-753,-1188,-354.0,-730.0,-1240.0,-336.0,-775.0,-1211.0,-335.0,-766.0,-1208.0
-326,-751,-1187,-354.0,-730.0,-1240.0,-336.0,-775.0,-1211.0,-335.0,-766.0,-1208.0
-326,-750,-1184,-354.0,-730.0,-1240.0,-336.0,-775.0,-1211.0,-335.0,-766.0,-1208.0
-327,-749,-1186,-354.0,-730.0,-1240.0,-336.0,-775.0,-1211.0,-335.0,-766.0,-1208.0
-328,-746,-1187,-354.0,-730.0,-1240.0,-336.0,-775.0,-1211.0,-335.0,-766.0,-1208.0
-329,-748,-1188,-354.0,-730.0,-1240.0,-336.0,-775.0,-1211.0,-335.0,-766.0,-1208.0
-330,-749,-1189,-354.0,-730.0,-1240.0,-336.0,-775.0,-1211.0,-335.0,-766.0,-1208.0
-331,-750,-1190,-354.0,-730.0,-1240.0,-336.0,-775.0,-1211.0,-335.0,-766.0,-1208.0
-333,-751,-1191,-354.0,-730.0,-1240.0,-336.0,-775.0,-1211.0,-335.0,-766.0,-1208.0
-335,-753,-1192,-354.0,-730.0,-1240.0,-336.0,-775.0,-1211.0,-335.0,-766.0,-1208.0
-336,-754,-1192,-354.0,-730.0,-1240.0,-336.0,-775.0,-1211.0,-335.0,-766.0,-1208.0
-338,-756,-1192,-354.0,-730.0,-1240.0,-336.0,-775.0,-1211.0,-335.0,-766.0,-1208.0
-339,-758,-1192,-354.0,-730.0,-1240.0,-336.0,-775.0,-1211.0,-335.0,-766.0,-1208.0
-340,-760,-1192,-354.0,-730.0,-1240.0,-336.0,-775.0,-1211.0,-335.0,-766.0,-1208.0
